,GP550R
RamanShit,Intensity
260.478,169.811
263.405,169.811
266.333,169.811
269.26,169.811
272.188,169.811
275.116,169.811
278.043,169.811
280.971,433.962
283.898,433.962
286.826,433.962
289.753,433.962
292.681,433.962
295.609,433.962
298.536,433.962
301.464,433.962
304.391,433.962
307.319,433.962
310.247,433.962
313.174,433.962
316.102,433.962
319.029,433.962
321.957,433.962
324.884,433.962
327.812,433.962
330.74,433.962
333.667,433.962
336.595,433.962
339.522,433.962
342.45,433.962
345.378,433.962
348.305,698.113
351.233,698.113
354.16,962.264
357.088,1226.42
360.015,1490.57
362.943,1754.72
365.871,2283.02
368.798,3075.47
371.726,3603.77
374.653,4924.53
377.581,6509.43
380.508,8622.64
383.436,11528.3
386.364,14434
389.291,15754.7
392.219,16811.3
395.146,15490.6
398.074,13641.5
401.002,9943.4
403.929,7037.74
406.857,4924.53
409.784,3603.77
412.712,2547.17
415.639,2018.87
418.567,1490.57
421.495,1226.42
424.422,962.264
427.35,698.113
430.277,433.962
433.205,433.962
436.133,433.962
439.06,433.962
441.988,169.811
444.915,169.811
447.843,169.811
450.77,169.811
453.698,169.811
456.626,169.811
459.553,169.811
462.481,169.811
465.408,169.811
468.336,433.962
471.263,433.962
474.191,433.962
477.119,433.962
480.046,698.113
482.974,962.264
485.901,1490.57
488.829,1754.72
491.757,2283.02
494.684,3339.62
497.612,4660.38
500.539,6773.58
503.467,8358.49
506.394,9679.25
509.322,11000
512.25,12056.6
515.177,11000
518.105,10471.7
521.032,8886.79
523.96,6773.58
526.888,5188.68
529.815,4132.08
532.743,3075.47
535.67,2547.17
538.598,2018.87
541.525,1490.57
544.453,1226.42
547.381,962.264
550.308,698.113
553.236,433.962
556.163,433.962
559.091,433.962
562.018,433.962
564.946,169.811
567.874,169.811
570.801,169.811
573.729,169.811
576.656,169.811
579.584,169.811
582.512,169.811
585.439,433.962
588.367,433.962
591.294,433.962
594.222,962.264
597.149,1226.42
600.077,1754.72
603.005,2283.02
605.932,3339.62
608.86,4660.38
611.787,6509.43
614.715,9150.94
617.643,12849.1
620.57,18132.1
623.498,25264.2
626.425,34245.3
629.353,39792.5
632.28,40849.1
635.208,46660.4
638.136,40584.9
641.063,40320.8
643.991,36094.3
646.918,27905.7
649.846,21037.7
652.773,16018.9
655.701,12056.6
658.629,9415.09
661.556,7301.89
664.484,5716.98
667.411,4396.23
670.339,3339.62
673.267,2547.17
676.194,2018.87
679.122,1754.72
682.049,1226.42
684.977,962.264
687.904,698.113
690.832,433.962
693.76,433.962
696.687,433.962
699.615,433.962
702.542,433.962
705.47,169.811
708.398,169.811
711.325,169.811
714.253,169.811
717.18,169.811
720.108,169.811
723.035,169.811
725.963,169.811
728.891,169.811
731.818,169.811
734.746,169.811
737.673,169.811
740.601,169.811
743.529,169.811
746.456,169.811
749.384,169.811
752.311,169.811
755.239,169.811
758.166,169.811
761.094,433.962
764.022,433.962
766.949,433.962
769.877,433.962
772.804,433.962
775.732,433.962
778.659,433.962
781.587,433.962
784.515,698.113
787.442,698.113
790.37,698.113
793.297,698.113
796.225,698.113
799.153,698.113
802.08,698.113
805.008,698.113
807.935,698.113
810.863,433.962
813.79,433.962
816.718,433.962
819.646,433.962
822.573,433.962
825.501,433.962
828.428,433.962
831.356,433.962
834.284,433.962
837.211,433.962
840.139,433.962
843.066,433.962
845.994,433.962
848.921,433.962
851.849,433.962
854.777,433.962
857.704,433.962
860.632,433.962
863.559,433.962
866.487,433.962
869.414,433.962
872.342,433.962
875.27,433.962
878.197,433.962
881.125,433.962
884.052,169.811
886.98,169.811
889.908,169.811
892.835,169.811
895.763,169.811
898.69,169.811
901.618,169.811
904.545,169.811
907.473,169.811
910.401,169.811
913.328,169.811
916.256,169.811
919.183,169.811
922.111,169.811
925.039,169.811
927.966,169.811
930.894,169.811
933.821,169.811
936.749,169.811
939.676,169.811
942.604,169.811
945.532,169.811
948.459,169.811
951.387,169.811
954.314,169.811
957.242,169.811
960.169,169.811
963.097,169.811
966.025,169.811
968.952,169.811
971.88,169.811
974.807,169.811
977.735,169.811
980.663,169.811
983.59,169.811
986.518,169.811
989.445,169.811
992.373,169.811
995.3,169.811
998.228,169.811
1001.16,169.811
1004.08,169.811
1007.01,169.811
1009.94,169.811
1012.87,169.811
1015.79,169.811
1018.72,169.811
1021.65,169.811
1024.58,169.811
1027.5,169.811
1030.43,169.811
1033.36,169.811
1036.29,169.811
1039.21,169.811
1042.14,169.811
1045.07,169.811
1048,169.811
1050.92,169.811
1053.85,169.811
1056.78,169.811
1059.71,169.811
1062.63,169.811
1065.56,169.811
1068.49,169.811
1071.42,169.811
1074.35,169.811
1077.27,169.811
1080.2,169.811
1083.13,169.811
1086.06,169.811
1088.98,169.811
1091.91,169.811
1094.84,169.811
1097.77,169.811
1100.69,169.811
1103.62,169.811
1106.55,169.811
1109.48,169.811
1112.4,169.811
1115.33,169.811
1118.26,169.811
1121.19,169.811
1124.11,169.811
1127.04,169.811
1129.97,169.811
1132.9,169.811
1135.82,169.811
1138.75,169.811
1141.68,169.811
1144.61,169.811
1147.53,169.811
1150.46,169.811
1153.39,169.811
1156.32,169.811
1159.24,169.811
1162.17,169.811
1165.1,169.811
1168.03,169.811
1170.96,169.811
1173.88,169.811
1176.81,169.811
1179.74,169.811
1182.67,169.811
1185.59,169.811
1188.52,169.811
1191.45,169.811
1194.38,169.811
1197.3,169.811
1200.23,169.811
1203.16,169.811
1206.09,169.811
1209.01,169.811
1211.94,169.811
1214.87,169.811
1217.8,169.811
1220.72,169.811
1223.65,169.811
1226.58,169.811
1229.51,433.962
1232.43,433.962
1235.36,433.962
1238.29,433.962
1241.22,433.962
1244.14,433.962
1247.07,433.962
1250,433.962
1252.93,433.962
1255.86,433.962
1258.78,433.962
1261.71,433.962
1264.64,433.962
1267.57,433.962
1270.49,433.962
1273.42,433.962
1276.35,433.962
1279.28,433.962
1282.2,433.962
1285.13,433.962
1288.06,433.962
1290.99,169.811
1293.91,169.811
1296.84,169.811
1299.77,169.811
1302.7,169.811
1305.62,169.811
1308.55,169.811
1311.48,169.811
1314.41,169.811
1317.33,169.811
1320.26,169.811
1323.19,169.811
1326.12,169.811
1329.04,169.811
1331.97,169.811
1334.9,169.811
1337.83,169.811
1340.76,169.811
1343.68,169.811
1346.61,169.811
1349.54,169.811
1352.47,169.811
1355.39,169.811
1358.32,169.811
1361.25,169.811
1364.18,169.811
1367.1,169.811
1370.03,169.811
1372.96,169.811
1375.89,169.811
1378.81,169.811
1381.74,169.811
1384.67,169.811
1387.6,169.811
1390.52,169.811
1393.45,169.811
1396.38,169.811
1399.31,169.811
1402.23,169.811
1405.16,169.811
1408.09,169.811
1411.02,169.811
1413.94,169.811
1416.87,169.811
1419.8,169.811
1422.73,169.811
1425.65,169.811
1428.58,169.811
1431.51,169.811
1434.44,169.811
1437.37,169.811
1440.29,169.811
1443.22,169.811
1446.15,169.811
1449.08,169.811
1452,169.811
1454.93,169.811
1457.86,169.811
1460.79,169.811
1463.71,169.811
1466.64,169.811
1469.57,169.811
1472.5,169.811
1475.42,169.811
1478.35,169.811
1481.28,169.811
1484.21,169.811
1487.13,169.811
1490.06,169.811
1492.99,169.811
1495.92,169.811
1498.84,169.811
1501.77,169.811
1504.7,169.811
1507.63,169.811
1510.55,169.811
1513.48,169.811
1516.41,169.811
1519.34,169.811
1522.27,169.811
1525.19,169.811
1528.12,169.811
1531.05,169.811
1533.98,169.811
1536.9,169.811
1539.83,169.811
1542.76,169.811
1545.69,169.811
1548.61,169.811
1551.54,169.811
1554.47,169.811
1557.4,169.811
1560.32,169.811
1563.25,169.811
1566.18,169.811
1569.11,169.811
1572.03,169.811
1574.96,169.811
1577.89,169.811
1580.82,169.811
1583.74,169.811
1586.67,169.811
1589.6,169.811
1592.53,169.811
1595.45,169.811
1598.38,169.811
1601.31,169.811
1604.24,169.811
1607.16,169.811
1610.09,169.811
1613.02,169.811
1615.95,169.811
1618.88,169.811
1621.8,169.811
1624.73,169.811
1627.66,169.811
1630.59,433.962
1633.51,433.962
1636.44,433.962
1639.37,433.962
1642.3,433.962
1645.22,433.962
1648.15,433.962
1651.08,433.962
1654.01,433.962
1656.93,433.962
1659.86,433.962
1662.79,433.962
1665.72,433.962
1668.64,433.962
1671.57,433.962
1674.5,433.962
1677.43,433.962
1680.35,433.962
1683.28,433.962
1686.21,433.962
1689.14,433.962
1692.06,433.962
1694.99,433.962
1697.92,433.962
1700.85,433.962
1703.78,433.962
1706.7,433.962
1709.63,433.962
1712.56,433.962
1715.49,169.811
1718.41,169.811
1721.34,169.811
1724.27,169.811
1727.2,169.811
1730.12,169.811
1733.05,169.811
1735.98,169.811
1738.91,169.811
1741.83,169.811
1744.76,169.811
1747.69,169.811
1750.62,169.811
1753.54,169.811
1756.47,169.811
1759.4,169.811
1762.33,169.811
1765.25,169.811
1768.18,169.811
1771.11,169.811
1774.04,169.811
1776.96,169.811
1779.89,169.811
1782.82,169.811
1785.75,169.811
1788.67,169.811
1791.6,169.811
1794.53,169.811
1797.46,169.811
1800.39,169.811
1803.31,169.811
1806.24,169.811
1809.17,169.811
1812.1,169.811
1815.02,169.811
1817.95,169.811
1820.88,169.811
1823.81,169.811
1826.73,169.811
1829.66,169.811
1832.59,169.811
1835.52,169.811
1838.44,169.811
1841.37,169.811
1844.3,169.811
1847.23,169.811
1850.15,169.811
1853.08,169.811
1856.01,169.811
1858.94,169.811
1861.86,169.811
1864.79,169.811
1867.72,169.811
1870.65,169.811
1873.57,169.811
1876.5,169.811
1879.43,169.811
1882.36,169.811
1885.29,169.811
1888.21,169.811
1891.14,169.811
1894.07,169.811
1897,169.811
1899.92,169.811
1902.85,169.811
1905.78,169.811
1908.71,169.811
1911.63,169.811
1914.56,169.811
1917.49,169.811
1920.42,169.811
1923.34,169.811
1926.27,169.811
1929.2,169.811
1932.13,169.811
1935.05,169.811
1937.98,169.811
1940.91,169.811
1943.84,169.811
1946.76,169.811
1949.69,169.811
1952.62,169.811
1955.55,169.811
1958.47,169.811
1961.4,169.811
1964.33,169.811
1967.26,169.811
1970.18,169.811
1973.11,169.811
1976.04,169.811
1978.97,169.811
1981.9,169.811
1984.82,169.811
1987.75,169.811
1990.68,169.811
1993.61,169.811
1996.53,169.811
1999.46,169.811
2002.39,169.811
2005.32,169.811
2008.24,169.811
2011.17,169.811
2014.1,169.811
2017.03,169.811
2019.95,169.811
2022.88,169.811
2025.81,169.811
2028.74,169.811
2031.66,169.811
2034.59,169.811
2037.52,169.811
2040.45,169.811
2043.37,169.811
2046.3,169.811
2049.23,169.811
2052.16,169.811
2055.08,169.811
2058.01,169.811
2060.94,169.811
2063.87,169.811
2066.8,169.811
2069.72,169.811
2072.65,169.811
2075.58,169.811
2078.51,169.811
2081.43,169.811
2084.36,169.811
2087.29,169.811
2090.22,169.811
2093.14,169.811
2096.07,169.811
2099,169.811
2101.93,169.811
2104.85,169.811
2107.78,169.811
2110.71,169.811
2113.64,169.811
2116.56,169.811
2119.49,169.811
2122.42,169.811
2125.35,169.811
2128.27,169.811
2131.2,169.811
2134.13,169.811
2137.06,169.811
2139.98,169.811
2142.91,169.811
2145.84,169.811
2148.77,169.811
2151.69,169.811
2154.62,169.811
2157.55,169.811
2160.48,169.811
2163.41,169.811
2166.33,169.811
2169.26,169.811
2172.19,169.811
2175.12,169.811
2178.04,169.811
2180.97,169.811
2183.9,169.811
2186.83,169.811
2189.75,169.811
2192.68,169.811
2195.61,169.811
2198.54,169.811
2201.46,169.811
2204.39,169.811
2207.32,169.811
2210.25,169.811
2213.17,169.811
2216.1,169.811
2219.03,169.811
2221.96,169.811
2224.88,169.811
2227.81,169.811
2230.74,169.811
2233.67,169.811
2236.59,169.811
2239.52,169.811
2242.45,169.811
2245.38,169.811
2248.31,169.811
2251.23,169.811
2254.16,169.811
2257.09,169.811
2260.02,169.811
2262.94,169.811
2265.87,169.811
2268.8,169.811
2271.73,169.811
2274.65,169.811
2277.58,169.811
2280.51,169.811
2283.44,169.811
2286.36,169.811
2289.29,169.811
2292.22,169.811
