,GP550R
RamanShit,Intensity
246.543,55.4348
249.598,55.4348
252.653,42.9842
255.707,55.4348
258.762,55.4348
261.817,11.996
264.871,12.8261
267.926,12.8261
270.981,14.2095
274.035,16.4229
277.09,18.913
280.145,16.6996
283.199,12.8261
286.254,8.39921
289.309,5.07905
292.363,2.86561
295.418,2.03557
298.473,2.86561
301.527,1.48221
304.582,1.48221
307.637,1.20553
310.691,2.58893
313.746,4.80237
316.801,2.03557
319.855,3.69565
322.91,2.86561
325.965,1.75889
329.019,1.75889
332.074,2.58893
335.129,0.928854
338.183,0.652174
341.238,0.928854
344.293,1.20553
347.347,1.75889
350.402,3.14229
353.457,3.14229
356.511,8.67589
359.566,7.84585
362.621,7.56917
365.675,8.12253
368.73,8.39921
371.785,11.7194
374.839,15.8696
377.894,17.5296
380.949,22.2332
384.003,26.6601
387.058,33.3004
390.113,39.9407
393.167,44.0909
396.222,49.0711
399.277,53.498
402.331,49.6245
405.386,29.1502
408.441,18.3597
411.495,14.2095
414.55,11.4427
417.605,8.67589
420.659,5.90909
423.714,5.90909
426.768,4.80237
429.823,2.58893
432.878,3.41897
435.932,4.52569
438.987,5.63241
442.042,2.58893
445.096,1.48221
448.151,1.48221
451.206,3.41897
454.26,2.03557
457.315,1.48221
460.37,1.48221
463.424,1.48221
466.479,3.97233
469.534,3.41897
472.588,3.97233
475.643,1.75889
478.698,2.86561
481.752,3.14229
484.807,3.97233
487.862,4.80237
490.916,1.75889
493.971,5.35573
497.026,6.18577
500.08,4.52569
503.135,5.63241
506.19,1.75889
509.244,0.928854
512.299,3.41897
515.354,6.18577
518.408,3.14229
521.463,2.31225
524.518,3.41897
527.572,2.86561
530.627,3.41897
533.682,3.69565
536.736,3.97233
539.791,5.90909
542.846,8.95257
545.9,2.86561
548.955,1.48221
552.01,1.75889
555.064,4.52569
558.119,3.97233
561.174,4.52569
564.228,3.69565
567.283,3.97233
570.338,4.52569
573.392,2.58893
576.447,2.31225
579.502,4.24901
582.556,2.86561
585.611,3.14229
588.666,3.14229
591.72,5.63241
594.775,3.97233
597.83,3.14229
600.884,4.24901
603.939,5.07905
606.994,3.97233
610.048,2.03557
613.103,2.03557
616.158,3.69565
619.212,1.75889
622.267,2.31225
625.322,3.14229
628.376,5.35573
631.431,4.24901
634.486,3.69565
637.54,3.14229
640.595,3.41897
643.65,4.24901
646.704,5.63241
649.759,3.41897
652.814,1.75889
655.868,7.01581
658.923,3.97233
661.977,3.14229
665.032,3.14229
668.087,4.52569
671.141,4.24901
674.196,4.80237
677.251,3.14229
680.305,2.86561
683.36,2.31225
686.415,2.86561
689.469,3.69565
692.524,0.375494
695.579,1.20553
698.633,3.97233
701.688,2.31225
704.743,2.03557
707.797,3.97233
710.852,1.75889
713.907,2.31225
716.961,4.52569
720.016,3.69565
723.071,4.52569
726.125,3.41897
729.18,3.97233
732.235,2.58893
735.289,2.58893
738.344,3.41897
741.399,3.97233
744.453,7.01581
747.508,5.35573
750.563,6.46245
753.617,9.22925
756.672,11.166
759.727,8.95257
762.781,11.996
765.836,9.22925
768.891,8.12253
771.945,6.18577
775,4.24901
778.055,3.69565
781.109,2.58893
784.164,1.20553
787.219,2.03557
790.273,1.48221
793.328,0.928854
796.383,2.86561
799.437,0.928854
802.492,1.75889
805.547,2.03557
808.601,2.58893
811.656,3.41897
814.711,3.69565
817.765,3.97233
820.82,4.24901
823.875,4.80237
826.929,7.84585
829.984,8.95257
833.039,7.56917
836.093,8.39921
839.148,6.73913
842.203,6.18577
845.257,7.84585
848.312,4.24901
851.367,5.63241
854.421,5.07905
857.476,4.80237
860.531,3.69565
863.585,2.58893
866.64,2.58893
869.695,2.31225
872.749,3.69565
875.804,4.24901
878.859,5.07905
881.913,2.03557
884.968,1.48221
888.023,2.58893
891.077,2.86561
894.132,2.03557
897.186,0.928854
900.241,0.652174
903.296,0.652174
906.35,0.928854
909.405,2.31225
912.46,5.63241
915.514,4.80237
918.569,7.01581
921.624,6.46245
924.678,7.29249
927.733,9.22925
930.788,11.7194
933.842,12.8261
936.897,9.50593
939.952,8.95257
943.006,8.95257
946.061,8.39921
949.116,6.46245
952.17,4.52569
955.225,3.14229
958.28,2.31225
961.334,3.97233
964.389,0.652174
967.444,3.97233
970.498,3.14229
973.553,4.52569
976.608,2.31225
979.662,2.58893
982.717,3.97233
985.772,2.03557
988.826,1.20553
991.881,3.41897
994.936,3.69565
997.99,2.58893
1001.05,2.86561
1004.1,2.58893
1007.15,2.31225
1010.21,4.24901
1013.26,3.69565
1016.32,4.24901
1019.37,0.928854
1022.43,2.03557
1025.48,3.14229
1028.54,2.03557
1031.59,2.03557
1034.65,1.48221
1037.7,2.58893
1040.76,5.35573
1043.81,2.86561
1046.86,2.31225
1049.92,3.14229
1052.97,1.75889
1056.03,2.31225
1059.08,2.86561
1062.14,4.80237
1065.19,2.86561
1068.25,2.58893
1071.3,3.41897
1074.36,4.52569
1077.41,5.07905
1080.47,5.90909
1083.52,8.95257
1086.58,14.2095
1089.63,20.8498
1092.68,25.83
1095.74,33.8538
1098.79,30.2569
1101.85,21.9565
1104.9,11.4427
1107.96,5.90909
1111.01,5.63241
1114.07,5.07905
1117.12,4.24901
1120.18,3.41897
1123.23,3.41897
1126.29,4.52569
1129.34,2.86561
1132.4,2.86561
1135.45,2.31225
1138.5,3.41897
1141.56,2.31225
1144.61,2.58893
1147.67,2.58893
1150.72,2.58893
1153.78,5.07905
1156.83,3.41897
1159.89,3.97233
1162.94,5.07905
1166,2.03557
1169.05,1.20553
1172.11,4.52569
1175.16,5.35573
1178.22,2.58893
1181.27,3.14229
1184.32,6.46245
1187.38,5.35573
1190.43,4.24901
1193.49,5.07905
1196.54,5.07905
1199.6,5.07905
1202.65,6.18577
1205.71,4.80237
1208.76,3.97233
1211.82,5.90909
1214.87,1.75889
1217.93,2.58893
1220.98,2.58893
1224.04,2.58893
1227.09,2.86561
1230.14,4.52569
1233.2,3.41897
1236.25,3.41897
1239.31,5.35573
1242.36,4.80237
1245.42,4.52569
1248.47,6.18577
1251.53,2.31225
1254.58,1.75889
1257.64,2.31225
1260.69,3.97233
1263.75,3.14229
1266.8,4.52569
1269.86,1.20553
1272.91,3.41897
1275.96,3.97233
1279.02,3.41897
1282.07,2.58893
1285.13,1.48221
1288.18,0.0988142
1291.24,-0.177866
1294.29,-0.177866
1297.35,-0.177866
1300.4,-0.177866
1303.46,-0.177866
1306.51,-0.177866
1309.57,-0.177866
1312.62,-0.177866
1315.68,-0.177866
1318.73,-0.177866
1321.78,-0.177866
1324.84,-0.177866
1327.89,-0.177866
1330.95,-0.177866
1334,-0.177866
1337.06,-0.177866
1340.11,-0.177866
1343.17,-0.177866
1346.22,-0.177866
1349.28,-0.177866
1352.33,-0.177866
1355.39,-0.177866
1358.44,-0.177866
1361.5,-0.177866
1364.55,-0.177866
1367.6,-0.177866
1370.66,-0.177866
1373.71,-0.177866
1376.77,-0.177866
1379.82,-0.177866
1382.88,-0.177866
1385.93,-0.177866
1388.99,-0.177866
1392.04,-0.177866
1395.1,-0.177866
1398.15,-0.177866
1401.21,-0.177866
1404.26,-0.177866
1407.32,-0.177866
1410.37,-0.177866
1413.42,-0.177866
1416.48,-0.177866
1419.53,-0.177866
1422.59,-0.177866
1425.64,-0.177866
1428.7,-0.177866
1431.75,-0.177866
1434.81,-0.177866
1437.86,-0.177866
1440.92,-0.177866
1443.97,-0.177866
1447.03,-0.177866
1450.08,-0.177866
1453.14,-0.177866
1456.19,-0.177866
1459.24,-0.177866
1462.3,-0.177866
1465.35,-0.177866
1468.41,-0.177866
1471.46,-0.177866
1474.52,-0.177866
1477.57,-0.177866
1480.63,-0.177866
1483.68,-0.177866
1486.74,-0.177866
1489.79,-0.177866
1492.85,-0.177866
1495.9,-0.177866
1498.95,-0.177866
1502.01,-0.177866
1505.06,-0.177866
1508.12,-0.177866
1511.17,-0.177866
1514.23,-0.177866
1517.28,-0.177866
1520.34,-0.177866
1523.39,-0.177866
1526.45,-0.177866
1529.5,-0.177866
1532.56,-0.177866
1535.61,-0.177866
1538.67,-0.177866
1541.72,-0.177866
1544.77,-0.177866
1547.83,-0.177866
1550.88,-0.177866
1553.94,-0.177866
1556.99,-0.177866
1560.05,-0.177866
1563.1,-0.177866
1566.16,-0.177866
1569.21,-0.177866
1572.27,-0.177866
1575.32,-0.177866
1578.38,-0.177866
1581.43,-0.177866
1584.49,-0.177866
1587.54,-0.177866
1590.59,-0.177866
1593.65,-0.177866
1596.7,-0.177866
1599.76,-0.177866
1602.81,-0.177866
1605.87,-0.177866
1608.92,-0.177866
1611.98,-0.177866
1615.03,-0.177866
1618.09,-0.177866
1621.14,-0.177866
1624.2,-0.177866
1627.25,-0.177866
1630.31,-0.177866
1633.36,-0.177866
1636.41,-0.177866
1639.47,-0.177866
1642.52,-0.177866
1645.58,-0.177866
1648.63,-0.177866
1651.69,-0.177866
1654.74,-0.177866
1657.8,-0.177866
1660.85,-0.177866
1663.91,-0.177866
1666.96,-0.177866
1670.02,-0.177866
1673.07,-0.177866
1676.13,-0.177866
1679.18,-0.177866
1682.23,-0.177866
1685.29,-0.177866
1688.34,-0.177866
1691.4,-0.177866
1694.45,-0.177866
1697.51,-0.177866
1700.56,-0.177866
1703.62,-0.177866
1706.67,-0.177866
1709.73,-0.177866
1712.78,-0.177866
1715.84,-0.177866
1718.89,-0.177866
1721.95,-0.177866
1725,-0.177866
1728.05,-0.177866
1731.11,-0.177866
1734.16,-0.177866
1737.22,-0.177866
1740.27,-0.177866
1743.33,-0.177866
1746.38,-0.177866
1749.44,-0.177866
1752.49,-0.177866
1755.55,-0.177866
1758.6,-0.177866
1761.66,-0.177866
1764.71,-0.177866
1767.77,-0.177866
1770.82,-0.177866
1773.87,-0.177866
1776.93,-0.177866
1779.98,-0.177866
1783.04,-0.177866
1786.09,-0.177866
1789.15,-0.177866
1792.2,-0.177866
1795.26,-0.177866
1798.31,-0.177866
1801.37,-0.177866
1804.42,-0.177866
1807.48,-0.177866
1810.53,-0.177866
1813.59,-0.177866
1816.64,-0.177866
1819.69,-0.177866
1822.75,-0.177866
1825.8,-0.177866
1828.86,-0.177866
1831.91,-0.177866
1834.97,-0.177866
1838.02,-0.177866
1841.08,-0.177866
1844.13,-0.177866
1847.19,-0.177866
1850.24,-0.177866
1853.3,-0.177866
1856.35,-0.177866
1859.41,-0.177866
1862.46,-0.177866
1865.51,-0.177866
1868.57,-0.177866
1871.62,-0.177866
1874.68,-0.177866
1877.73,-0.177866
1880.79,-0.177866
1883.84,-0.177866
1886.9,-0.177866
1889.95,-0.177866
1893.01,-0.177866
1896.06,-0.177866
1899.12,-0.177866
1902.17,-0.177866
1905.23,-0.177866
1908.28,-0.177866
1911.33,-0.177866
1914.39,-0.177866
1917.44,-0.177866
1920.5,-0.177866
1923.55,-0.177866
1926.61,-0.177866
1929.66,-0.177866
1932.72,-0.177866
1935.77,-0.177866
1938.83,-0.177866
1941.88,-0.177866
1944.94,-0.177866
1947.99,-0.177866
1951.05,-0.177866
1954.1,-0.177866
1957.15,-0.177866
1960.21,-0.177866
1963.26,-0.177866
1966.32,-0.177866
1969.37,-0.177866
1972.43,-0.177866
1975.48,-0.177866
1978.54,-0.177866
1981.59,-0.177866
1984.65,-0.177866
1987.7,-0.177866
1990.76,-0.177866
1993.81,-0.177866
1996.86,-0.177866
1999.92,-0.177866
2002.97,-0.177866
2006.03,-0.177866
2009.08,-0.177866
2012.14,-0.177866
2015.19,-0.177866
2018.25,-0.177866
2021.3,-0.177866
2024.36,-0.177866
2027.41,-0.177866
2030.47,-0.177866
2033.52,-0.177866
2036.58,-0.177866
2039.63,-0.177866
2042.68,-0.177866
2045.74,-0.177866
2048.79,-0.177866
2051.85,-0.177866
2054.9,-0.177866
2057.96,-0.177866
2061.01,-0.177866
2064.07,-0.177866
2067.12,-0.177866
2070.18,-0.177866
2073.23,-0.177866
2076.29,-0.177866
2079.34,-0.177866
2082.4,-0.177866
2085.45,-0.177866
2088.5,-0.177866
2091.56,-0.177866
2094.61,-0.177866
2097.67,-0.177866
2100.72,-0.177866
2103.78,-0.177866
2106.83,-0.177866
2109.89,-0.177866
2112.94,-0.177866
2116,-0.177866
2119.05,-0.177866
2122.11,-0.177866
2125.16,-0.177866
2128.22,-0.177866
2131.27,-0.177866
2134.32,-0.177866
2137.38,-0.177866
2140.43,-0.177866
2143.49,-0.177866
2146.54,-0.177866
2149.6,-0.177866
2152.65,-0.177866
2155.71,-0.177866
2158.76,-0.177866
2161.82,-0.177866
2164.87,-0.177866
2167.93,-0.177866
2170.98,-0.177866
2174.04,-0.177866
2177.09,-0.177866
2180.14,-0.177866
2183.2,-0.177866
2186.25,-0.177866
2189.31,-0.177866
2192.36,-0.177866
2195.42,-0.177866
2198.47,-0.177866
2201.53,-0.177866
2204.58,-0.177866
2207.64,-0.177866
2210.69,-0.177866
2213.75,-0.177866
2216.8,-0.177866
2219.86,-0.177866
2222.91,-0.177866
2225.96,-0.177866
2229.02,-0.177866
2232.07,-0.177866
2235.13,-0.177866
2238.18,-0.177866
2241.24,-0.177866
2244.29,-0.177866
2247.35,-0.177866
2250.4,-0.177866
2253.46,-0.177866
2256.51,-0.177866
2259.57,-0.177866
2262.62,-0.177866
2265.68,-0.177866
2268.73,-0.177866
2271.78,-0.177866
2274.84,-0.177866
2277.89,-0.177866
2280.95,-0.177866
2284,-0.177866
2287.06,-0.177866
2290.11,-0.177866
2293.17,-0.177866
2296.22,-0.177866
