,GP550R
RamanShit,Intensity
252.653,21719.4
255.707,35355.7
258.762,35355.7
261.817,4920.95
264.871,6106.72
267.926,3932.81
270.981,3735.18
274.035,2549.41
277.09,770.751
280.145,-19.7628
283.199,-19.7628
286.254,-19.7628
289.309,177.866
292.363,-19.7628
295.418,-19.7628
298.473,-19.7628
301.527,-19.7628
304.582,-19.7628
307.637,177.866
310.691,-19.7628
313.746,-19.7628
316.801,-19.7628
319.855,-19.7628
322.91,-19.7628
325.965,177.866
329.019,-19.7628
332.074,177.866
335.129,375.494
338.183,968.379
341.238,2747.04
344.293,4723.32
347.347,7687.75
350.402,6106.72
353.457,6699.6
356.511,6897.23
359.566,10059.3
362.621,10652.2
365.675,11837.9
368.73,17371.5
371.785,18359.7
374.839,12035.6
377.894,9664.03
380.949,5513.83
384.003,3735.18
387.058,3537.55
390.113,3339.92
393.167,2944.66
396.222,2549.41
399.277,2351.78
402.331,2549.41
405.386,2351.78
408.441,375.494
411.495,177.866
414.55,-19.7628
417.605,177.866
420.659,-19.7628
423.714,-19.7628
426.768,-19.7628
429.823,-19.7628
432.878,-19.7628
435.932,177.866
438.987,-19.7628
442.042,-19.7628
445.096,-19.7628
448.151,177.866
451.206,375.494
454.26,770.751
457.315,770.751
460.37,968.379
463.424,968.379
466.479,1363.64
469.534,1956.52
472.588,2747.04
475.643,3537.55
478.698,3537.55
481.752,3537.55
484.807,3339.92
487.862,2747.04
490.916,1956.52
493.971,1363.64
497.026,1166.01
500.08,1166.01
503.135,1166.01
506.19,968.379
509.244,968.379
512.299,968.379
515.354,968.379
518.408,1166.01
521.463,1363.64
524.518,2747.04
527.572,5316.21
530.627,7687.75
533.682,13419
536.736,14209.5
539.791,8280.63
542.846,6501.98
545.9,3339.92
548.955,1758.89
552.01,1166.01
555.064,968.379
558.119,968.379
561.174,1166.01
564.228,1758.89
567.283,4920.95
570.338,12628.5
573.392,35158.1
576.447,37332
579.502,17569.2
582.556,14011.9
585.611,10059.3
588.666,1561.26
591.72,770.751
594.775,573.123
597.83,375.494
600.884,375.494
603.939,177.866
606.994,177.866
610.048,-19.7628
613.103,-19.7628
616.158,-19.7628
619.212,177.866
622.267,-19.7628
625.322,177.866
628.376,177.866
631.431,177.866
634.486,-19.7628
637.54,177.866
640.595,-19.7628
643.65,-19.7628
646.704,-19.7628
649.759,-19.7628
652.814,-19.7628
655.868,177.866
658.923,-19.7628
661.977,-19.7628
665.032,-19.7628
668.087,-19.7628
671.141,-19.7628
674.196,177.866
677.251,-19.7628
680.305,-19.7628
683.36,-19.7628
686.415,-19.7628
689.469,-19.7628
692.524,177.866
695.579,-19.7628
698.633,-19.7628
701.688,-19.7628
704.743,-19.7628
707.797,-19.7628
710.852,177.866
713.907,-19.7628
716.961,-19.7628
720.016,-19.7628
723.071,-19.7628
726.125,-19.7628
729.18,177.866
732.235,-19.7628
735.289,177.866
738.344,375.494
741.399,573.123
744.453,770.751
747.508,770.751
750.563,968.379
753.617,770.751
756.672,770.751
759.727,573.123
762.781,375.494
765.836,177.866
768.891,177.866
771.945,-19.7628
775,-19.7628
778.055,-19.7628
781.109,-19.7628
784.164,177.866
787.219,-19.7628
790.273,-19.7628
793.328,-19.7628
796.383,-19.7628
799.437,-19.7628
802.492,177.866
805.547,-19.7628
808.601,-19.7628
811.656,-19.7628
814.711,-19.7628
817.765,-19.7628
820.82,177.866
823.875,-19.7628
826.929,-19.7628
829.984,-19.7628
833.039,-19.7628
836.093,-19.7628
839.148,177.866
842.203,-19.7628
845.257,-19.7628
848.312,-19.7628
851.367,-19.7628
854.421,-19.7628
857.476,177.866
860.531,-19.7628
863.585,-19.7628
866.64,-19.7628
869.695,-19.7628
872.749,-19.7628
875.804,177.866
878.859,-19.7628
881.913,-19.7628
884.968,177.866
888.023,177.866
891.077,375.494
894.132,573.123
897.186,770.751
900.241,1166.01
903.296,1758.89
906.35,2747.04
909.405,4328.06
912.46,6304.35
915.514,7292.49
918.569,7490.12
921.624,8083
924.678,10256.9
927.733,13814.2
930.788,16383.4
933.842,17173.9
936.897,18952.6
939.952,16778.7
943.006,14407.1
946.061,10652.2
949.116,9466.4
952.17,8675.89
955.225,6106.72
958.28,3537.55
961.334,1956.52
964.389,1166.01
967.444,770.751
970.498,573.123
973.553,375.494
976.608,177.866
979.662,177.866
982.717,-19.7628
985.772,177.866
988.826,-19.7628
991.881,-19.7628
994.936,-19.7628
997.99,-19.7628
1001.05,-19.7628
1004.1,177.866
1007.15,177.866
1010.21,770.751
1013.26,1166.01
1016.32,1363.64
1019.37,1363.64
1022.43,1166.01
1025.48,1166.01
1028.54,770.751
1031.59,573.123
1034.65,375.494
1037.7,177.866
1040.76,177.866
1043.81,-19.7628
1046.86,-19.7628
1049.92,-19.7628
1052.97,177.866
1056.03,177.866
1059.08,177.866
1062.14,375.494
1065.19,177.866
1068.25,177.866
1071.3,177.866
1074.36,-19.7628
1077.41,177.866
1080.47,-19.7628
1083.52,-19.7628
1086.58,-19.7628
1089.63,-19.7628
1092.68,-19.7628
1095.74,177.866
1098.79,177.866
1101.85,177.866
1104.9,177.866
1107.96,375.494
1111.01,177.866
1114.07,177.866
1117.12,177.866
1120.18,-19.7628
1123.23,-19.7628
1126.29,-19.7628
1129.34,-19.7628
1132.4,177.866
1135.45,177.866
1138.5,375.494
1141.56,573.123
1144.61,573.123
1147.67,573.123
1150.72,770.751
1153.78,770.751
1156.83,770.751
1159.89,968.379
1162.94,1166.01
1166,1166.01
1169.05,1363.64
1172.11,1363.64
1175.16,1166.01
1178.22,968.379
1181.27,770.751
1184.32,375.494
1187.38,177.866
1190.43,177.866
1193.49,177.866
1196.54,-19.7628
1199.6,177.866
1202.65,177.866
1205.71,-19.7628
1208.76,177.866
1211.82,375.494
1214.87,375.494
1217.93,573.123
1220.98,573.123
1224.04,573.123
1227.09,573.123
1230.14,573.123
1233.2,573.123
1236.25,375.494
1239.31,375.494
1242.36,177.866
1245.42,177.866
1248.47,177.866
1251.53,177.866
1254.58,-19.7628
1257.64,177.866
1260.69,-19.7628
1263.75,-19.7628
1266.8,-19.7628
1269.86,177.866
1272.91,375.494
1275.96,375.494
1279.02,375.494
1282.07,375.494
1285.13,573.123
1288.18,375.494
1291.24,375.494
1294.29,375.494
1297.35,177.866
1300.4,177.866
1303.46,177.866
1306.51,177.866
1309.57,177.866
1312.62,177.866
1315.68,177.866
1318.73,177.866
1321.78,177.866
1324.84,177.866
1327.89,375.494
1330.95,375.494
1334,573.123
1337.06,770.751
1340.11,968.379
1343.17,968.379
1346.22,1166.01
1349.28,1166.01
1352.33,968.379
1355.39,968.379
1358.44,770.751
1361.5,770.751
1364.55,573.123
1367.6,573.123
1370.66,375.494
1373.71,177.866
1376.77,177.866
1379.82,177.866
1382.88,177.866
1385.93,177.866
1388.99,-19.7628
1392.04,177.866
1395.1,177.866
1398.15,375.494
1401.21,375.494
1404.26,375.494
1407.32,375.494
1410.37,375.494
1413.42,375.494
1416.48,177.866
1419.53,177.866
1422.59,177.866
1425.64,-19.7628
1428.7,-19.7628
1431.75,-19.7628
1434.81,-19.7628
1437.86,-19.7628
1440.92,177.866
1443.97,-19.7628
1447.03,-19.7628
1450.08,-19.7628
1453.14,-19.7628
1456.19,-19.7628
1459.24,177.866
1462.3,-19.7628
1465.35,-19.7628
1468.41,-19.7628
1471.46,-19.7628
1474.52,-19.7628
1477.57,177.866
1480.63,-19.7628
1483.68,177.866
1486.74,177.866
1489.79,177.866
1492.85,177.866
1495.9,177.866
1498.95,177.866
1502.01,177.866
1505.06,177.866
1508.12,177.866
1511.17,177.866
1514.23,177.866
1517.28,177.866
1520.34,177.866
1523.39,-19.7628
1526.45,-19.7628
1529.5,-19.7628
1532.56,177.866
1535.61,177.866
1538.67,177.866
1541.72,177.866
1544.77,177.866
1547.83,177.866
1550.88,177.866
1553.94,177.866
1556.99,375.494
1560.05,375.494
1563.1,375.494
1566.16,375.494
1569.21,375.494
1572.27,573.123
1575.32,573.123
1578.38,375.494
1581.43,375.494
1584.49,375.494
1587.54,375.494
1590.59,375.494
1593.65,375.494
1596.7,375.494
1599.76,375.494
1602.81,375.494
1605.87,375.494
1608.92,573.123
1611.98,375.494
1615.03,375.494
1618.09,375.494
1621.14,177.866
1624.2,177.866
1627.25,177.866
1630.31,-19.7628
1633.36,-19.7628
1636.41,-19.7628
1639.47,-19.7628
1642.52,177.866
1645.58,-19.7628
1648.63,-19.7628
1651.69,-19.7628
1654.74,-19.7628
1657.8,-19.7628
1660.85,177.866
1663.91,-19.7628
1666.96,-19.7628
1670.02,-19.7628
1673.07,-19.7628
1676.13,-19.7628
1679.18,177.866
1682.23,-19.7628
1685.29,-19.7628
1688.34,-19.7628
1691.4,-19.7628
1694.45,-19.7628
1697.51,177.866
1700.56,-19.7628
1703.62,-19.7628
1706.67,-19.7628
1709.73,-19.7628
1712.78,-19.7628
1715.84,177.866
1718.89,-19.7628
1721.95,-19.7628
1725,-19.7628
1728.05,-19.7628
1731.11,-19.7628
1734.16,177.866
1737.22,-19.7628
1740.27,-19.7628
1743.33,-19.7628
1746.38,-19.7628
1749.44,-19.7628
1752.49,177.866
1755.55,-19.7628
1758.6,-19.7628
1761.66,-19.7628
1764.71,177.866
1767.77,177.866
1770.82,177.866
1773.87,177.866
1776.93,177.866
1779.98,177.866
1783.04,177.866
1786.09,177.866
1789.15,177.866
1792.2,177.866
1795.26,177.866
1798.31,-19.7628
1801.37,177.866
1804.42,-19.7628
1807.48,177.866
1810.53,177.866
1813.59,177.866
1816.64,177.866
1819.69,177.866
1822.75,177.866
1825.8,177.866
1828.86,177.866
1831.91,177.866
1834.97,177.866
1838.02,177.866
1841.08,177.866
1844.13,177.866
1847.19,177.866
1850.24,177.866
1853.3,177.866
1856.35,177.866
1859.41,177.866
1862.46,177.866
1865.51,177.866
1868.57,177.866
1871.62,177.866
1874.68,177.866
1877.73,177.866
1880.79,177.866
1883.84,177.866
1886.9,177.866
1889.95,177.866
1893.01,-19.7628
1896.06,-19.7628
1899.12,177.866
1902.17,-19.7628
1905.23,-19.7628
1908.28,-19.7628
1911.33,-19.7628
1914.39,-19.7628
1917.44,177.866
1920.5,-19.7628
1923.55,-19.7628
1926.61,-19.7628
1929.66,-19.7628
1932.72,-19.7628
1935.77,177.866
1938.83,-19.7628
1941.88,-19.7628
1944.94,-19.7628
1947.99,-19.7628
1951.05,-19.7628
1954.1,177.866
1957.15,-19.7628
1960.21,-19.7628
1963.26,-19.7628
1966.32,-19.7628
1969.37,-19.7628
1972.43,177.866
1975.48,-19.7628
1978.54,-19.7628
1981.59,-19.7628
1984.65,-19.7628
1987.7,-19.7628
1990.76,177.866
1993.81,-19.7628
1996.86,-19.7628
1999.92,-19.7628
2002.97,177.866
2006.03,-19.7628
2009.08,177.866
2012.14,-19.7628
2015.19,-19.7628
2018.25,-19.7628
2021.3,-19.7628
2024.36,-19.7628
2027.41,177.866
2030.47,-19.7628
2033.52,177.866
2036.58,177.866
2039.63,177.866
2042.68,-19.7628
2045.74,177.866
2048.79,177.866
2051.85,177.866
2054.9,177.866
2057.96,177.866
2061.01,177.866
2064.07,177.866
2067.12,-19.7628
2070.18,-19.7628
2073.23,-19.7628
2076.29,-19.7628
2079.34,-19.7628
2082.4,177.866
2085.45,-19.7628
2088.5,177.866
2091.56,177.866
2094.61,177.866
2097.67,177.866
2100.72,177.866
2103.78,177.866
2106.83,177.866
2109.89,177.866
2112.94,177.866
2116,177.866
2119.05,177.866
2122.11,177.866
2125.16,177.866
2128.22,177.866
2131.27,177.866
2134.32,177.866
2137.38,177.866
2140.43,177.866
2143.49,177.866
2146.54,177.866
2149.6,177.866
2152.65,-19.7628
2155.71,177.866
2158.76,-19.7628
2161.82,-19.7628
2164.87,-19.7628
2167.93,-19.7628
2170.98,-19.7628
2174.04,177.866
2177.09,-19.7628
2180.14,177.866
2183.2,177.866
2186.25,177.866
2189.31,-19.7628
2192.36,177.866
2195.42,-19.7628
2198.47,-19.7628
2201.53,177.866
2204.58,-19.7628
2207.64,177.866
2210.69,177.866
2213.75,177.866
2216.8,177.866
2219.86,177.866
2222.91,177.866
2225.96,177.866
2229.02,177.866
2232.07,177.866
2235.13,-19.7628
2238.18,-19.7628
2241.24,-19.7628
2244.29,-19.7628
2247.35,177.866
2250.4,177.866
2253.46,-19.7628
2256.51,-19.7628
2259.57,-19.7628
2262.62,-19.7628
2265.68,177.866
2268.73,-19.7628
2271.78,177.866
2274.84,177.866
2277.89,177.866
2280.95,-19.7628
2284,177.866
2287.06,-19.7628
2290.11,-10098.8
2293.17,-10098.8
2296.22,-10098.8
