,GP550R
RamanShit,Intensity
261.755,389.105
264.815,389.105
267.874,155.642
270.934,155.642
273.994,-77.821
277.053,-77.821
280.113,-77.821
283.172,-77.821
286.232,155.642
289.291,155.642
292.351,155.642
295.411,155.642
298.47,155.642
301.53,155.642
304.589,155.642
307.649,155.642
310.709,155.642
313.768,155.642
316.828,155.642
319.887,155.642
322.947,155.642
326.006,155.642
329.066,155.642
332.126,155.642
335.185,155.642
338.245,155.642
341.304,389.105
344.364,622.568
347.424,1089.49
350.483,1089.49
353.543,1089.49
356.602,856.031
359.662,622.568
362.721,389.105
365.781,155.642
368.841,155.642
371.9,155.642
374.96,155.642
378.019,155.642
381.079,155.642
384.138,389.105
387.198,622.568
390.258,622.568
393.317,856.031
396.377,856.031
399.436,622.568
402.496,622.568
405.556,389.105
408.615,155.642
411.675,155.642
414.734,155.642
417.794,155.642
420.853,155.642
423.913,155.642
426.973,155.642
430.032,389.105
433.092,622.568
436.151,856.031
439.211,1322.96
442.271,2490.27
445.33,3891.05
448.39,6459.14
451.449,11128.4
454.509,19533.1
457.568,25369.6
460.628,37042.8
463.688,25369.6
466.747,25136.2
469.807,20000
472.866,12062.3
475.926,7859.92
478.986,5525.29
482.045,4124.51
485.105,3657.59
488.164,3424.12
491.224,3657.59
494.283,3891.05
497.343,4124.51
500.403,4591.44
503.462,3891.05
506.522,3424.12
509.581,2256.81
512.641,1322.96
515.7,1089.49
518.76,622.568
521.82,389.105
524.879,389.105
527.939,155.642
530.998,155.642
534.058,155.642
537.118,155.642
540.177,155.642
543.237,155.642
546.296,155.642
549.356,155.642
552.415,155.642
555.475,155.642
558.535,155.642
561.594,155.642
564.654,155.642
567.713,155.642
570.773,155.642
573.833,155.642
576.892,155.642
579.952,155.642
583.011,155.642
586.071,155.642
589.13,155.642
592.19,155.642
595.25,155.642
598.309,155.642
601.369,155.642
604.428,155.642
607.488,155.642
610.548,155.642
613.607,155.642
616.667,155.642
619.726,155.642
622.786,155.642
625.845,155.642
628.905,155.642
631.965,155.642
635.024,155.642
638.084,155.642
641.143,155.642
644.203,155.642
647.262,155.642
650.322,155.642
653.382,155.642
656.441,155.642
659.501,155.642
662.56,155.642
665.62,155.642
668.68,155.642
671.739,389.105
674.799,389.105
677.858,389.105
680.918,389.105
683.977,389.105
687.037,389.105
690.097,389.105
693.156,622.568
696.216,622.568
699.275,389.105
702.335,389.105
705.395,155.642
708.454,155.642
711.514,155.642
714.573,155.642
717.633,155.642
720.692,155.642
723.752,155.642
726.812,155.642
729.871,155.642
732.931,155.642
735.99,155.642
739.05,155.642
742.11,155.642
745.169,155.642
748.229,155.642
751.288,155.642
754.348,155.642
757.407,155.642
760.467,155.642
763.527,155.642
766.586,155.642
769.646,155.642
772.705,155.642
775.765,155.642
778.824,155.642
781.884,155.642
784.944,389.105
788.003,389.105
791.063,622.568
794.122,622.568
797.182,856.031
800.242,856.031
803.301,856.031
806.361,856.031
809.42,856.031
812.48,622.568
815.539,389.105
818.599,389.105
821.659,155.642
824.718,155.642
827.778,155.642
830.837,155.642
833.897,155.642
836.957,155.642
840.016,155.642
843.076,155.642
846.135,155.642
849.195,155.642
852.254,155.642
855.314,155.642
858.374,155.642
861.433,155.642
864.493,155.642
867.552,155.642
870.612,155.642
873.671,155.642
876.731,155.642
879.791,155.642
882.85,155.642
885.91,155.642
888.969,155.642
892.029,155.642
895.089,155.642
898.148,155.642
901.208,155.642
904.267,155.642
907.327,155.642
910.386,155.642
913.446,155.642
916.506,155.642
919.565,155.642
922.625,155.642
925.684,155.642
928.744,155.642
931.804,155.642
934.863,155.642
937.923,155.642
940.982,155.642
944.042,155.642
947.101,155.642
950.161,155.642
953.221,155.642
956.28,155.642
959.34,155.642
962.399,155.642
965.459,155.642
968.519,155.642
971.578,155.642
974.638,155.642
977.697,155.642
980.757,155.642
983.816,155.642
986.876,155.642
989.936,155.642
992.995,155.642
996.055,155.642
999.114,155.642
1002.17,155.642
1005.23,155.642
1008.29,155.642
1011.35,155.642
1014.41,155.642
1017.47,155.642
1020.53,155.642
1023.59,155.642
1026.65,155.642
1029.71,155.642
1032.77,155.642
1035.83,155.642
1038.89,155.642
1041.95,155.642
1045.01,155.642
1048.07,155.642
1051.13,155.642
1054.19,155.642
1057.25,155.642
1060.31,389.105
1063.37,389.105
1066.43,389.105
1069.48,389.105
1072.54,389.105
1075.6,389.105
1078.66,389.105
1081.72,389.105
1084.78,389.105
1087.84,389.105
1090.9,155.642
1093.96,155.642
1097.02,155.642
1100.08,155.642
1103.14,155.642
1106.2,155.642
1109.26,155.642
1112.32,155.642
1115.38,155.642
1118.44,155.642
1121.5,155.642
1124.56,155.642
1127.62,155.642
1130.68,155.642
1133.74,155.642
1136.8,155.642
1139.86,155.642
1142.91,155.642
1145.97,155.642
1149.03,389.105
1152.09,389.105
1155.15,622.568
1158.21,856.031
1161.27,856.031
1164.33,1089.49
1167.39,856.031
1170.45,622.568
1173.51,389.105
1176.57,389.105
1179.63,155.642
1182.69,155.642
1185.75,155.642
1188.81,155.642
1191.87,155.642
1194.93,155.642
1197.99,155.642
1201.05,155.642
1204.11,155.642
1207.17,155.642
1210.23,155.642
1213.29,155.642
1216.34,155.642
1219.4,155.642
1222.46,155.642
1225.52,155.642
1228.58,155.642
1231.64,155.642
1234.7,155.642
1237.76,155.642
1240.82,155.642
1243.88,155.642
1246.94,155.642
1250,155.642
1253.06,155.642
1256.12,155.642
1259.18,155.642
1262.24,155.642
1265.3,155.642
1268.36,155.642
1271.42,155.642
1274.48,155.642
1277.54,155.642
1280.6,155.642
1283.66,155.642
1286.71,155.642
1289.77,155.642
1292.83,155.642
1295.89,155.642
1298.95,155.642
1302.01,155.642
1305.07,155.642
1308.13,155.642
1311.19,155.642
1314.25,155.642
1317.31,155.642
1320.37,155.642
1323.43,155.642
1326.49,155.642
1329.55,155.642
1332.61,155.642
1335.67,155.642
1338.73,155.642
1341.79,155.642
1344.85,155.642
1347.91,155.642
1350.97,155.642
1354.03,155.642
1357.09,155.642
1360.14,155.642
1363.2,155.642
1366.26,155.642
1369.32,155.642
1372.38,155.642
1375.44,155.642
1378.5,155.642
1381.56,155.642
1384.62,155.642
1387.68,155.642
1390.74,155.642
1393.8,155.642
1396.86,155.642
1399.92,155.642
1402.98,155.642
1406.04,155.642
1409.1,155.642
1412.16,155.642
1415.22,155.642
1418.28,155.642
1421.34,155.642
1424.4,155.642
1427.46,155.642
1430.52,155.642
1433.57,155.642
1436.63,155.642
1439.69,155.642
1442.75,155.642
1445.81,155.642
1448.87,155.642
1451.93,155.642
1454.99,155.642
1458.05,155.642
1461.11,155.642
1464.17,155.642
1467.23,155.642
1470.29,155.642
1473.35,155.642
1476.41,155.642
1479.47,155.642
1482.53,155.642
1485.59,155.642
1488.65,155.642
1491.71,155.642
1494.77,155.642
1497.83,155.642
1500.89,155.642
1503.95,155.642
1507,155.642
1510.06,155.642
1513.12,155.642
1516.18,155.642
1519.24,155.642
1522.3,155.642
1525.36,155.642
1528.42,155.642
1531.48,155.642
1534.54,155.642
1537.6,155.642
1540.66,155.642
1543.72,155.642
1546.78,155.642
1549.84,155.642
1552.9,155.642
1555.96,155.642
1559.02,155.642
1562.08,155.642
1565.14,155.642
1568.2,155.642
1571.26,155.642
1574.32,155.642
1577.38,155.642
1580.43,155.642
1583.49,155.642
1586.55,155.642
1589.61,155.642
1592.67,155.642
1595.73,155.642
1598.79,155.642
1601.85,155.642
1604.91,155.642
1607.97,155.642
1611.03,155.642
1614.09,155.642
1617.15,155.642
1620.21,155.642
1623.27,155.642
1626.33,155.642
1629.39,155.642
1632.45,155.642
1635.51,155.642
1638.57,155.642
1641.63,155.642
1644.69,155.642
1647.75,155.642
1650.81,155.642
1653.86,155.642
1656.92,155.642
1659.98,155.642
1663.04,155.642
1666.1,155.642
1669.16,155.642
1672.22,155.642
1675.28,155.642
1678.34,155.642
1681.4,155.642
1684.46,155.642
1687.52,155.642
1690.58,155.642
1693.64,155.642
1696.7,155.642
1699.76,155.642
1702.82,155.642
1705.88,155.642
1708.94,155.642
1712,155.642
1715.06,155.642
1718.12,155.642
1721.18,155.642
1724.24,155.642
1727.29,155.642
1730.35,155.642
1733.41,155.642
1736.47,155.642
1739.53,155.642
1742.59,155.642
1745.65,155.642
1748.71,155.642
1751.77,155.642
1754.83,155.642
1757.89,155.642
1760.95,155.642
1764.01,155.642
1767.07,155.642
1770.13,155.642
1773.19,155.642
1776.25,155.642
1779.31,155.642
1782.37,155.642
1785.43,155.642
1788.49,155.642
1791.55,155.642
1794.61,155.642
1797.67,155.642
1800.72,155.642
1803.78,155.642
1806.84,155.642
1809.9,155.642
1812.96,155.642
1816.02,155.642
1819.08,155.642
1822.14,155.642
1825.2,155.642
1828.26,155.642
1831.32,155.642
1834.38,155.642
1837.44,155.642
1840.5,155.642
1843.56,155.642
1846.62,155.642
1849.68,155.642
1852.74,155.642
1855.8,155.642
1858.86,155.642
1861.92,155.642
1864.98,155.642
1868.04,155.642
1871.1,155.642
1874.15,155.642
1877.21,155.642
1880.27,155.642
1883.33,155.642
1886.39,155.642
1889.45,155.642
1892.51,155.642
1895.57,155.642
1898.63,155.642
1901.69,155.642
1904.75,155.642
1907.81,155.642
1910.87,155.642
1913.93,155.642
1916.99,155.642
1920.05,155.642
1923.11,155.642
1926.17,155.642
1929.23,155.642
1932.29,155.642
1935.35,155.642
1938.41,155.642
1941.47,155.642
1944.52,155.642
1947.58,155.642
1950.64,155.642
1953.7,155.642
1956.76,155.642
1959.82,155.642
1962.88,155.642
1965.94,155.642
1969,155.642
1972.06,155.642
1975.12,155.642
1978.18,155.642
1981.24,155.642
1984.3,155.642
1987.36,155.642
1990.42,155.642
1993.48,155.642
1996.54,155.642
1999.6,155.642
2002.66,155.642
2005.72,155.642
2008.78,155.642
2011.84,155.642
2014.9,155.642
2017.95,155.642
2021.01,155.642
2024.07,155.642
2027.13,155.642
2030.19,155.642
2033.25,155.642
2036.31,155.642
2039.37,155.642
2042.43,155.642
2045.49,155.642
2048.55,155.642
2051.61,155.642
2054.67,155.642
2057.73,155.642
2060.79,155.642
2063.85,155.642
2066.91,155.642
2069.97,155.642
2073.03,155.642
2076.09,155.642
2079.15,155.642
2082.21,155.642
2085.27,155.642
2088.33,155.642
2091.38,155.642
2094.44,155.642
2097.5,155.642
2100.56,155.642
2103.62,155.642
2106.68,155.642
2109.74,155.642
2112.8,155.642
2115.86,155.642
2118.92,155.642
2121.98,155.642
2125.04,155.642
2128.1,155.642
2131.16,155.642
2134.22,155.642
2137.28,155.642
2140.34,155.642
2143.4,155.642
2146.46,155.642
2149.52,155.642
2152.58,155.642
2155.64,155.642
2158.7,155.642
2161.76,155.642
2164.81,155.642
2167.87,155.642
2170.93,155.642
2173.99,155.642
2177.05,155.642
2180.11,155.642
2183.17,155.642
2186.23,155.642
2189.29,155.642
2192.35,155.642
2195.41,155.642
2198.47,155.642
2201.53,155.642
2204.59,155.642
2207.65,155.642
2210.71,155.642
2213.77,155.642
2216.83,155.642
2219.89,155.642
2222.95,155.642
2226.01,155.642
2229.07,155.642
2232.13,155.642
2235.19,155.642
2238.24,155.642
2241.3,155.642
2244.36,155.642
2247.42,155.642
2250.48,155.642
2253.54,155.642
2256.6,155.642
2259.66,155.642
2262.72,155.642
2265.78,155.642
2268.84,155.642
2271.9,155.642
2274.96,155.642
2278.02,155.642
2281.08,155.642
2284.14,155.642
2287.2,155.642
2290.26,155.642
2293.32,155.642
