,GP550R
RamanShit,Intensity
215.862,157.48
218.921,787.402
221.981,787.402
225.04,787.402
228.1,629.921
231.159,157.48
234.219,157.48
237.279,157.48
240.338,157.48
243.398,25196.9
246.457,25196.9
249.517,19370.1
252.576,25196.9
255.636,25196.9
258.696,157.48
261.755,157.48
264.815,157.48
267.874,157.48
270.934,-157.48
273.994,787.402
277.053,2047.24
280.113,2834.65
283.172,3622.05
286.232,2834.65
289.291,2362.2
292.351,1259.84
295.411,314.961
298.47,0
301.53,0
304.589,0
307.649,157.48
310.709,157.48
313.768,314.961
316.828,472.441
319.887,787.402
322.947,1259.84
326.006,2204.72
329.066,3937.01
332.126,7244.09
335.185,12440.9
338.245,20157.5
341.304,21259.8
344.364,15275.6
347.424,13543.3
350.483,10236.2
353.543,6929.13
356.602,4094.49
359.662,2047.24
362.721,1102.36
365.781,472.441
368.841,314.961
371.9,157.48
374.96,157.48
378.019,157.48
381.079,157.48
384.138,157.48
387.198,157.48
390.258,157.48
393.317,157.48
396.377,157.48
399.436,157.48
402.496,157.48
405.556,157.48
408.615,157.48
411.675,157.48
414.734,157.48
417.794,157.48
420.853,157.48
423.913,157.48
426.973,157.48
430.032,157.48
433.092,157.48
436.151,157.48
439.211,157.48
442.271,157.48
445.33,157.48
448.39,157.48
451.449,157.48
454.509,157.48
457.568,157.48
460.628,157.48
463.688,157.48
466.747,157.48
469.807,157.48
472.866,157.48
475.926,157.48
478.986,157.48
482.045,157.48
485.105,157.48
488.164,157.48
491.224,157.48
494.283,157.48
497.343,157.48
500.403,157.48
503.462,157.48
506.522,157.48
509.581,157.48
512.641,157.48
515.7,157.48
518.76,157.48
521.82,157.48
524.879,157.48
527.939,157.48
530.998,157.48
534.058,157.48
537.118,157.48
540.177,157.48
543.237,157.48
546.296,157.48
549.356,157.48
552.415,157.48
555.475,157.48
558.535,157.48
561.594,157.48
564.654,157.48
567.713,157.48
570.773,157.48
573.833,157.48
576.892,157.48
579.952,157.48
583.011,157.48
586.071,157.48
589.13,157.48
592.19,157.48
595.25,157.48
598.309,157.48
601.369,157.48
604.428,157.48
607.488,157.48
610.548,157.48
613.607,157.48
616.667,157.48
619.726,157.48
622.786,157.48
625.845,157.48
628.905,157.48
631.965,157.48
635.024,157.48
638.084,157.48
641.143,157.48
644.203,157.48
647.262,157.48
650.322,157.48
653.382,157.48
656.441,157.48
659.501,157.48
662.56,157.48
665.62,157.48
668.68,157.48
671.739,157.48
674.799,157.48
677.858,157.48
680.918,157.48
683.977,157.48
687.037,157.48
690.097,157.48
693.156,157.48
696.216,157.48
699.275,157.48
702.335,157.48
705.395,157.48
708.454,157.48
711.514,157.48
714.573,157.48
717.633,157.48
720.692,157.48
723.752,157.48
726.812,157.48
729.871,157.48
732.931,157.48
735.99,157.48
739.05,157.48
742.11,157.48
745.169,157.48
748.229,157.48
751.288,157.48
754.348,157.48
757.407,157.48
760.467,157.48
763.527,157.48
766.586,157.48
769.646,157.48
772.705,157.48
775.765,157.48
778.824,157.48
781.884,157.48
784.944,157.48
788.003,157.48
791.063,157.48
794.122,157.48
797.182,157.48
800.242,157.48
803.301,157.48
806.361,157.48
809.42,157.48
812.48,157.48
815.539,157.48
818.599,157.48
821.659,157.48
824.718,157.48
827.778,157.48
830.837,157.48
833.897,157.48
836.957,157.48
840.016,157.48
843.076,157.48
846.135,157.48
849.195,157.48
852.254,157.48
855.314,157.48
858.374,157.48
861.433,157.48
864.493,157.48
867.552,157.48
870.612,157.48
873.671,157.48
876.731,157.48
879.791,157.48
882.85,157.48
885.91,157.48
888.969,157.48
892.029,157.48
895.089,157.48
898.148,157.48
901.208,157.48
904.267,157.48
907.327,157.48
910.386,157.48
913.446,157.48
916.506,157.48
919.565,157.48
922.625,157.48
925.684,157.48
928.744,157.48
931.804,157.48
934.863,157.48
937.923,157.48
940.982,157.48
944.042,157.48
947.101,157.48
950.161,157.48
953.221,157.48
956.28,157.48
959.34,157.48
962.399,157.48
965.459,157.48
968.519,157.48
971.578,157.48
974.638,157.48
977.697,157.48
980.757,157.48
983.816,157.48
986.876,157.48
989.936,157.48
992.995,157.48
996.055,157.48
999.114,157.48
1002.17,157.48
1005.23,157.48
1008.29,157.48
1011.35,157.48
1014.41,157.48
1017.47,157.48
1020.53,157.48
1023.59,157.48
1026.65,157.48
1029.71,157.48
1032.77,157.48
1035.83,157.48
1038.89,157.48
1041.95,157.48
1045.01,157.48
1048.07,157.48
1051.13,157.48
1054.19,157.48
1057.25,157.48
1060.31,157.48
1063.37,157.48
1066.43,157.48
1069.48,157.48
1072.54,157.48
1075.6,157.48
1078.66,157.48
1081.72,157.48
1084.78,157.48
1087.84,157.48
1090.9,157.48
1093.96,157.48
1097.02,157.48
1100.08,157.48
1103.14,157.48
1106.2,157.48
1109.26,157.48
1112.32,157.48
1115.38,157.48
1118.44,157.48
1121.5,157.48
1124.56,157.48
1127.62,157.48
1130.68,157.48
1133.74,157.48
1136.8,157.48
1139.86,157.48
1142.91,157.48
1145.97,157.48
1149.03,157.48
1152.09,157.48
1155.15,157.48
1158.21,157.48
1161.27,157.48
1164.33,157.48
1167.39,157.48
1170.45,157.48
1173.51,157.48
1176.57,157.48
1179.63,157.48
1182.69,157.48
1185.75,157.48
1188.81,157.48
1191.87,157.48
1194.93,157.48
1197.99,157.48
1201.05,157.48
1204.11,157.48
1207.17,157.48
1210.23,157.48
1213.29,157.48
1216.34,157.48
1219.4,157.48
1222.46,157.48
1225.52,157.48
1228.58,157.48
1231.64,157.48
1234.7,157.48
1237.76,157.48
1240.82,157.48
1243.88,157.48
1246.94,157.48
1250,157.48
1253.06,157.48
1256.12,157.48
1259.18,157.48
1262.24,157.48
1265.3,157.48
1268.36,157.48
1271.42,157.48
1274.48,157.48
1277.54,157.48
1280.6,157.48
1283.66,157.48
1286.71,157.48
1289.77,157.48
1292.83,157.48
1295.89,157.48
1298.95,157.48
1302.01,157.48
1305.07,157.48
1308.13,157.48
1311.19,157.48
1314.25,157.48
1317.31,157.48
1320.37,157.48
1323.43,157.48
1326.49,157.48
1329.55,157.48
1332.61,157.48
1335.67,157.48
1338.73,157.48
1341.79,157.48
1344.85,157.48
1347.91,157.48
1350.97,157.48
1354.03,157.48
1357.09,157.48
1360.14,157.48
1363.2,157.48
1366.26,157.48
1369.32,157.48
1372.38,157.48
1375.44,157.48
1378.5,157.48
1381.56,157.48
1384.62,157.48
1387.68,157.48
1390.74,157.48
1393.8,157.48
1396.86,157.48
1399.92,157.48
1402.98,157.48
1406.04,157.48
1409.1,157.48
1412.16,157.48
1415.22,157.48
1418.28,157.48
1421.34,157.48
1424.4,157.48
1427.46,157.48
1430.52,157.48
1433.57,157.48
1436.63,157.48
1439.69,157.48
1442.75,157.48
1445.81,157.48
1448.87,157.48
1451.93,157.48
1454.99,157.48
1458.05,157.48
1461.11,157.48
1464.17,157.48
1467.23,157.48
1470.29,157.48
1473.35,157.48
1476.41,157.48
1479.47,157.48
1482.53,157.48
1485.59,157.48
1488.65,157.48
1491.71,157.48
1494.77,157.48
1497.83,157.48
1500.89,157.48
1503.95,157.48
1507,157.48
1510.06,157.48
1513.12,157.48
1516.18,157.48
1519.24,157.48
1522.3,157.48
1525.36,157.48
1528.42,157.48
1531.48,157.48
1534.54,157.48
1537.6,157.48
1540.66,157.48
1543.72,157.48
1546.78,157.48
1549.84,157.48
1552.9,157.48
1555.96,157.48
1559.02,157.48
1562.08,157.48
1565.14,157.48
1568.2,157.48
1571.26,157.48
1574.32,157.48
1577.38,157.48
1580.43,157.48
1583.49,157.48
1586.55,157.48
1589.61,157.48
1592.67,157.48
1595.73,157.48
1598.79,157.48
1601.85,157.48
1604.91,157.48
1607.97,157.48
1611.03,157.48
1614.09,157.48
1617.15,157.48
1620.21,157.48
1623.27,157.48
1626.33,157.48
1629.39,157.48
1632.45,157.48
1635.51,157.48
1638.57,157.48
1641.63,157.48
1644.69,157.48
1647.75,157.48
1650.81,157.48
1653.86,157.48
1656.92,157.48
1659.98,157.48
1663.04,157.48
1666.1,157.48
1669.16,157.48
1672.22,157.48
1675.28,157.48
1678.34,157.48
1681.4,157.48
1684.46,157.48
1687.52,157.48
1690.58,157.48
1693.64,157.48
1696.7,157.48
1699.76,157.48
1702.82,157.48
1705.88,157.48
1708.94,157.48
1712,157.48
1715.06,157.48
1718.12,157.48
1721.18,157.48
1724.24,157.48
1727.29,157.48
1730.35,157.48
1733.41,157.48
1736.47,157.48
1739.53,157.48
1742.59,157.48
1745.65,157.48
1748.71,157.48
1751.77,157.48
1754.83,157.48
1757.89,157.48
1760.95,157.48
1764.01,157.48
1767.07,157.48
1770.13,157.48
1773.19,157.48
1776.25,157.48
1779.31,157.48
1782.37,157.48
1785.43,157.48
1788.49,157.48
1791.55,157.48
1794.61,157.48
1797.67,157.48
1800.72,157.48
1803.78,157.48
1806.84,157.48
1809.9,157.48
1812.96,157.48
1816.02,157.48
1819.08,157.48
1822.14,157.48
1825.2,157.48
1828.26,157.48
1831.32,157.48
1834.38,157.48
1837.44,157.48
1840.5,157.48
1843.56,157.48
1846.62,157.48
1849.68,157.48
1852.74,157.48
1855.8,157.48
1858.86,157.48
1861.92,157.48
1864.98,157.48
1868.04,157.48
1871.1,157.48
1874.15,157.48
1877.21,157.48
1880.27,157.48
1883.33,157.48
1886.39,157.48
1889.45,157.48
1892.51,157.48
1895.57,157.48
1898.63,157.48
1901.69,157.48
1904.75,157.48
1907.81,157.48
1910.87,157.48
1913.93,157.48
1916.99,157.48
1920.05,157.48
1923.11,157.48
1926.17,157.48
1929.23,157.48
1932.29,157.48
1935.35,157.48
1938.41,157.48
1941.47,157.48
1944.52,157.48
1947.58,157.48
1950.64,157.48
1953.7,157.48
1956.76,157.48
1959.82,157.48
1962.88,157.48
1965.94,157.48
1969,157.48
1972.06,157.48
1975.12,157.48
1978.18,157.48
1981.24,157.48
1984.3,157.48
1987.36,157.48
1990.42,157.48
1993.48,157.48
1996.54,157.48
1999.6,157.48
2002.66,157.48
2005.72,157.48
2008.78,157.48
2011.84,157.48
2014.9,157.48
2017.95,157.48
2021.01,157.48
2024.07,157.48
2027.13,157.48
2030.19,157.48
2033.25,157.48
2036.31,157.48
2039.37,157.48
2042.43,157.48
2045.49,157.48
2048.55,157.48
2051.61,157.48
2054.67,157.48
2057.73,157.48
2060.79,157.48
2063.85,157.48
2066.91,157.48
2069.97,157.48
2073.03,157.48
2076.09,157.48
2079.15,157.48
2082.21,157.48
2085.27,157.48
2088.33,157.48
2091.38,157.48
2094.44,157.48
2097.5,157.48
2100.56,157.48
2103.62,157.48
2106.68,157.48
2109.74,157.48
2112.8,157.48
2115.86,157.48
2118.92,157.48
2121.98,157.48
2125.04,157.48
2128.1,157.48
2131.16,157.48
2134.22,157.48
2137.28,157.48
2140.34,157.48
2143.4,157.48
2146.46,157.48
2149.52,157.48
2152.58,157.48
2155.64,157.48
2158.7,157.48
2161.76,157.48
2164.81,157.48
2167.87,157.48
2170.93,157.48
2173.99,157.48
2177.05,157.48
2180.11,157.48
2183.17,157.48
2186.23,157.48
2189.29,157.48
2192.35,157.48
2195.41,157.48
2198.47,157.48
2201.53,157.48
2204.59,157.48
2207.65,157.48
2210.71,157.48
2213.77,157.48
2216.83,157.48
2219.89,157.48
2222.95,157.48
2226.01,157.48
2229.07,157.48
2232.13,157.48
2235.19,157.48
2238.24,157.48
2241.3,157.48
2244.36,157.48
2247.42,157.48
2250.48,157.48
2253.54,157.48
2256.6,157.48
2259.66,157.48
2262.72,157.48
2265.78,157.48
2268.84,157.48
2271.9,157.48
2274.96,157.48
2278.02,157.48
2281.08,157.48
2284.14,157.48
2287.2,157.48
2290.26,157.48
