,GP550R
RamanShit,Intensity
257.819,153.271
261.486,228.037
265.154,295.327
268.822,385.047
272.49,437.383
276.158,527.103
279.826,519.626
283.494,437.383
287.162,407.477
290.83,332.71
294.498,257.944
298.166,198.131
301.834,153.271
305.502,130.841
309.17,108.411
312.838,85.9813
316.506,78.5047
320.174,63.5514
323.842,48.5981
327.51,41.1215
331.178,33.6449
334.846,26.1682
338.514,26.1682
342.181,26.1682
345.849,26.1682
349.517,33.6449
353.185,33.6449
356.853,33.6449
360.521,33.6449
364.189,33.6449
367.857,33.6449
371.525,33.6449
375.193,33.6449
378.861,33.6449
382.529,41.1215
386.197,41.1215
389.865,41.1215
393.533,41.1215
397.201,48.5981
400.869,48.5981
404.537,48.5981
408.205,48.5981
411.873,48.5981
415.541,48.5981
419.208,48.5981
422.876,33.6449
426.544,33.6449
430.212,33.6449
433.88,33.6449
437.548,33.6449
441.216,33.6449
444.884,33.6449
448.552,33.6449
452.22,33.6449
455.888,33.6449
459.556,33.6449
463.224,33.6449
466.892,33.6449
470.56,33.6449
474.228,33.6449
477.896,33.6449
481.564,33.6449
485.232,33.6449
488.9,33.6449
492.568,41.1215
496.236,48.5981
499.903,48.5981
503.571,48.5981
507.239,48.5981
510.907,48.5981
514.575,48.5981
518.243,56.0748
521.911,56.0748
525.579,56.0748
529.247,56.0748
532.915,56.0748
536.583,56.0748
540.251,56.0748
543.919,56.0748
547.587,56.0748
551.255,56.0748
554.923,56.0748
558.591,56.0748
562.259,56.0748
565.927,48.5981
569.595,48.5981
573.263,48.5981
576.931,48.5981
580.598,48.5981
584.266,48.5981
587.934,48.5981
591.602,41.1215
595.27,41.1215
598.938,48.5981
602.606,48.5981
606.274,48.5981
609.942,48.5981
613.61,48.5981
617.278,56.0748
620.946,56.0748
624.614,56.0748
628.282,56.0748
631.95,56.0748
635.618,56.0748
639.286,56.0748
642.954,56.0748
646.622,56.0748
650.29,56.0748
653.958,56.0748
657.625,56.0748
661.293,63.5514
664.961,63.5514
668.629,63.5514
672.297,71.028
675.965,71.028
679.633,71.028
683.301,78.5047
686.969,85.9813
690.637,100.935
694.305,130.841
697.973,183.178
701.641,228.037
705.309,235.514
708.977,295.327
712.645,228.037
716.313,213.084
719.981,168.224
723.649,108.411
727.317,78.5047
730.985,78.5047
734.653,63.5514
738.32,63.5514
741.988,56.0748
745.656,56.0748
749.324,56.0748
752.992,56.0748
756.66,56.0748
760.328,48.5981
763.996,48.5981
767.664,48.5981
771.332,48.5981
775,48.5981
778.668,56.0748
782.336,56.0748
786.004,56.0748
789.672,56.0748
793.34,56.0748
797.008,56.0748
800.676,33.6449
804.344,48.5981
808.012,48.5981
811.68,48.5981
815.347,48.5981
819.015,48.5981
822.683,48.5981
826.351,48.5981
830.019,48.5981
833.687,41.1215
837.355,33.6449
841.023,33.6449
844.691,33.6449
848.359,33.6449
852.027,33.6449
855.695,33.6449
859.363,33.6449
863.031,33.6449
866.699,33.6449
870.367,33.6449
874.035,33.6449
877.703,33.6449
881.371,33.6449
885.039,33.6449
888.707,33.6449
892.375,33.6449
896.042,26.1682
899.71,18.6916
903.378,26.1682
907.046,26.1682
910.714,33.6449
914.382,33.6449
918.05,26.1682
921.718,26.1682
925.386,26.1682
929.054,26.1682
932.722,33.6449
936.39,33.6449
940.058,33.6449
943.726,33.6449
947.394,33.6449
951.062,33.6449
954.73,33.6449
958.398,33.6449
962.066,41.1215
965.734,48.5981
969.402,48.5981
973.069,48.5981
976.737,48.5981
980.405,48.5981
984.073,48.5981
987.741,48.5981
991.409,56.0748
995.077,63.5514
998.745,71.028
1002.41,78.5047
1006.08,85.9813
1009.75,93.4579
1013.42,93.4579
1017.08,93.4579
1020.75,85.9813
1024.42,71.028
1028.09,56.0748
1031.76,56.0748
1035.42,41.1215
1039.09,33.6449
1042.76,33.6449
1046.43,33.6449
1050.1,41.1215
1053.76,56.0748
1057.43,71.028
1061.1,93.4579
1064.77,160.748
1068.44,220.561
1072.1,347.664
1075.77,728.972
1079.44,1005.61
1083.11,2284.11
1086.78,2022.43
1090.44,773.832
1094.11,534.579
1097.78,377.57
1101.45,220.561
1105.12,205.607
1108.78,228.037
1112.45,317.757
1116.12,452.336
1119.79,512.15
1123.46,624.299
1127.12,639.252
1130.79,504.673
1134.46,452.336
1138.13,340.187
1141.8,235.514
1145.46,183.178
1149.13,160.748
1152.8,130.841
1156.47,100.935
1160.14,78.5047
1163.8,71.028
1167.47,63.5514
1171.14,56.0748
1174.81,48.5981
1178.47,48.5981
1182.14,41.1215
1185.81,33.6449
1189.48,33.6449
1193.15,33.6449
1196.81,33.6449
1200.48,18.6916
1204.15,26.1682
1207.82,26.1682
1211.49,26.1682
1215.15,26.1682
1218.82,26.1682
1222.49,26.1682
1226.16,26.1682
1229.83,26.1682
1233.49,26.1682
1237.16,26.1682
1240.83,26.1682
1244.5,26.1682
1248.17,26.1682
1251.83,26.1682
1255.5,26.1682
1259.17,26.1682
1262.84,26.1682
1266.51,26.1682
1270.17,26.1682
1273.84,26.1682
1277.51,26.1682
1281.18,33.6449
1284.85,33.6449
1288.51,33.6449
1292.18,33.6449
1295.85,33.6449
1299.52,33.6449
1303.19,18.6916
1306.85,26.1682
1310.52,26.1682
1314.19,26.1682
1317.86,26.1682
1321.53,26.1682
1325.19,26.1682
1328.86,26.1682
1332.53,26.1682
1336.2,26.1682
1339.86,26.1682
1343.53,26.1682
1347.2,26.1682
1350.87,26.1682
1354.54,26.1682
1358.2,26.1682
1361.87,26.1682
1365.54,26.1682
1369.21,26.1682
1372.88,26.1682
1376.54,26.1682
1380.21,26.1682
1383.88,26.1682
1387.55,26.1682
1391.22,26.1682
1394.88,26.1682
1398.55,26.1682
1402.22,26.1682
1405.89,26.1682
1409.56,26.1682
1413.22,26.1682
1416.89,33.6449
1420.56,33.6449
1424.23,33.6449
1427.9,33.6449
1431.56,33.6449
1435.23,33.6449
1438.9,41.1215
1442.57,33.6449
1446.24,33.6449
1449.9,33.6449
1453.57,33.6449
1457.24,26.1682
1460.91,26.1682
1464.58,26.1682
1468.24,26.1682
1471.91,26.1682
1475.58,26.1682
1479.25,33.6449
1482.92,41.1215
1486.58,56.0748
1490.25,71.028
1493.92,85.9813
1497.59,130.841
1501.25,168.224
1504.92,213.084
1508.59,310.28
1512.26,377.57
1515.93,497.196
1519.59,474.766
1523.26,362.617
1526.93,340.187
1530.6,295.327
1534.27,228.037
1537.93,175.701
1541.6,138.318
1545.27,108.411
1548.94,85.9813
1552.61,71.028
1556.27,71.028
1559.94,56.0748
1563.61,48.5981
1567.28,33.6449
1570.95,33.6449
1574.61,33.6449
1578.28,33.6449
1581.95,33.6449
1585.62,33.6449
1589.29,33.6449
1592.95,33.6449
1596.62,33.6449
1600.29,26.1682
1603.96,18.6916
1607.63,26.1682
1611.29,26.1682
1614.96,26.1682
1618.63,26.1682
1622.3,26.1682
1625.97,26.1682
1629.63,26.1682
1633.3,26.1682
1636.97,33.6449
1640.64,33.6449
1644.31,33.6449
1647.97,26.1682
1651.64,26.1682
1655.31,26.1682
1658.98,26.1682
1662.64,26.1682
1666.31,26.1682
1669.98,26.1682
1673.65,26.1682
1677.32,26.1682
1680.98,26.1682
1684.65,33.6449
1688.32,33.6449
1691.99,33.6449
1695.66,33.6449
1699.32,33.6449
1702.99,26.1682
1706.66,26.1682
1710.33,26.1682
1714,26.1682
1717.66,26.1682
1721.33,26.1682
1725,26.1682
1728.67,26.1682
1732.34,26.1682
1736,33.6449
1739.67,41.1215
1743.34,56.0748
1747.01,63.5514
1750.68,63.5514
1754.34,63.5514
1758.01,63.5514
1761.68,56.0748
1765.35,41.1215
1769.02,33.6449
1772.68,33.6449
1776.35,33.6449
1780.02,33.6449
1783.69,33.6449
1787.36,33.6449
1791.02,33.6449
1794.69,33.6449
1798.36,18.6916
1802.03,26.1682
1805.69,26.1682
1809.36,33.6449
1813.03,33.6449
1816.7,41.1215
1820.37,41.1215
1824.03,48.5981
1827.7,48.5981
1831.37,48.5981
1835.04,48.5981
1838.71,48.5981
1842.37,48.5981
1846.04,48.5981
1849.71,48.5981
1853.38,48.5981
1857.05,48.5981
1860.71,48.5981
1864.38,48.5981
1868.05,48.5981
1871.72,48.5981
1875.39,48.5981
1879.05,48.5981
1882.72,48.5981
1886.39,48.5981
1890.06,48.5981
1893.73,48.5981
1897.39,48.5981
1901.06,26.1682
1904.73,48.5981
1908.4,48.5981
1912.07,48.5981
1915.73,48.5981
1919.4,48.5981
1923.07,48.5981
1926.74,48.5981
1930.41,48.5981
1934.07,48.5981
1937.74,48.5981
1941.41,48.5981
1945.08,48.5981
1948.75,48.5981
1952.41,48.5981
1956.08,48.5981
1959.75,48.5981
1963.42,48.5981
1967.08,48.5981
1970.75,48.5981
1974.42,48.5981
1978.09,48.5981
1981.76,48.5981
1985.42,48.5981
1989.09,48.5981
1992.76,48.5981
1996.43,48.5981
2000.1,26.1682
2003.76,48.5981
2007.43,48.5981
2011.1,48.5981
2014.77,48.5981
2018.44,48.5981
2022.1,48.5981
2025.77,48.5981
2029.44,48.5981
2033.11,48.5981
2036.78,48.5981
2040.44,48.5981
2044.11,48.5981
2047.78,48.5981
2051.45,48.5981
2055.12,48.5981
2058.78,48.5981
2062.45,48.5981
2066.12,48.5981
2069.79,48.5981
2073.46,33.6449
2077.12,33.6449
2080.79,33.6449
2084.46,33.6449
2088.13,33.6449
2091.8,33.6449
2095.46,33.6449
2099.13,33.6449
2102.8,18.6916
2106.47,33.6449
2110.14,33.6449
2113.8,33.6449
2117.47,33.6449
2121.14,33.6449
2124.81,33.6449
2128.47,33.6449
2132.14,33.6449
2135.81,33.6449
2139.48,33.6449
2143.15,33.6449
2146.81,33.6449
2150.48,33.6449
2154.15,33.6449
2157.82,33.6449
2161.49,33.6449
2165.15,33.6449
2168.82,33.6449
2172.49,33.6449
2176.16,33.6449
2179.83,33.6449
2183.49,33.6449
2187.16,33.6449
2190.83,33.6449
2194.5,33.6449
2198.17,33.6449
2201.83,18.6916
2205.5,33.6449
2209.17,26.1682
2212.84,26.1682
2216.51,26.1682
2220.17,26.1682
2223.84,26.1682
2227.51,33.6449
2231.18,33.6449
2234.85,33.6449
2238.51,33.6449
2242.18,33.6449
2245.85,33.6449
2249.52,33.6449
2253.19,33.6449
2256.85,33.6449
2260.52,33.6449
2264.19,33.6449
2267.86,33.6449
2271.53,33.6449
2275.19,33.6449
2278.86,26.1682
2282.53,26.1682
2286.2,26.1682
2289.86,26.1682
2293.53,26.1682
2297.2,26.1682
2300.87,18.6916
2304.54,26.1682
2308.2,26.1682
2311.87,26.1682
2315.54,26.1682
2319.21,26.1682
2322.88,26.1682
2326.54,26.1682
2330.21,26.1682
2333.88,26.1682
2337.55,26.1682
