,GP550R
RamanShit,Intensity
270.359,20.073
273.479,20.073
276.599,14.9635
279.719,9.85401
282.839,9.85401
285.959,9.85401
289.08,4.74453
292.2,4.74453
295.32,9.85401
298.44,9.85401
301.56,9.85401
304.68,14.9635
307.8,20.073
310.92,20.073
314.041,20.073
317.161,20.073
320.281,20.073
323.401,20.073
326.521,20.073
329.641,25.1825
332.761,30.292
335.881,30.292
339.002,35.4015
342.122,40.5109
345.242,60.9489
348.362,71.1679
351.482,76.2774
354.602,81.3869
357.722,112.044
360.842,152.92
363.963,173.358
367.083,178.467
370.203,183.577
373.323,433.942
376.443,459.489
379.563,229.562
382.683,214.234
385.803,229.562
388.924,234.672
392.044,234.672
395.164,234.672
398.284,239.781
401.404,244.891
404.524,250
407.644,321.533
410.764,393.066
413.885,934.672
417.005,515.693
420.125,393.066
423.245,387.956
426.365,326.642
429.485,255.109
432.605,239.781
435.725,234.672
438.846,229.562
441.966,224.453
445.086,214.234
448.206,214.234
451.326,214.234
454.446,214.234
457.566,214.234
460.686,214.234
463.807,214.234
466.927,219.343
470.047,255.109
473.167,234.672
476.287,198.905
479.407,193.796
482.527,193.796
485.647,168.248
488.768,127.372
491.888,106.934
495.008,101.825
498.128,96.7153
501.248,91.6058
504.368,81.3869
507.488,81.3869
510.608,81.3869
513.729,76.2774
516.849,71.1679
519.969,81.3869
523.089,86.4964
526.209,86.4964
529.329,86.4964
532.449,86.4964
535.569,101.825
538.69,86.4964
541.81,81.3869
544.93,81.3869
548.05,66.0584
551.17,50.7299
554.29,50.7299
557.41,45.6204
560.53,40.5109
563.651,45.6204
566.771,45.6204
569.891,45.6204
573.011,321.533
576.131,352.19
579.251,45.6204
582.371,40.5109
585.491,30.292
588.612,20.073
591.732,9.85401
594.852,14.9635
597.972,20.073
601.092,20.073
604.212,20.073
607.332,25.1825
610.452,25.1825
613.573,30.292
616.693,30.292
619.813,30.292
622.933,25.1825
626.053,40.5109
629.173,40.5109
632.293,45.6204
635.413,50.7299
638.534,50.7299
641.654,55.8394
644.774,76.2774
647.894,96.7153
651.014,106.934
654.134,127.372
657.254,152.92
660.374,188.686
663.495,214.234
666.615,219.343
669.735,265.328
672.855,255.109
675.975,250
679.095,239.781
682.215,250
685.335,255.109
688.456,260.219
691.576,260.219
694.696,260.219
697.816,265.328
700.936,270.438
704.056,454.38
707.176,495.255
710.296,260.219
713.417,219.343
716.537,178.467
719.657,173.358
722.777,168.248
725.897,168.248
729.017,168.248
732.137,178.467
735.257,183.577
738.378,260.219
741.498,336.861
744.618,341.971
747.738,893.796
750.858,622.993
753.978,341.971
757.098,336.861
760.218,331.752
763.339,239.781
766.459,122.263
769.579,96.7153
772.699,96.7153
775.819,91.6058
778.939,81.3869
782.059,71.1679
785.179,66.0584
788.3,66.0584
791.42,60.9489
794.54,60.9489
797.66,50.7299
800.78,50.7299
803.9,50.7299
807.02,45.6204
810.14,45.6204
813.261,45.6204
816.381,35.4015
819.501,25.1825
822.621,25.1825
825.741,25.1825
828.861,25.1825
831.981,25.1825
835.101,25.1825
838.222,20.073
841.342,20.073
844.462,20.073
847.582,20.073
850.702,20.073
853.822,20.073
856.942,20.073
860.062,25.1825
863.183,25.1825
866.303,30.292
869.423,25.1825
872.543,25.1825
875.663,25.1825
878.783,25.1825
881.903,25.1825
885.023,25.1825
888.144,25.1825
891.264,25.1825
894.384,25.1825
897.504,20.073
900.624,20.073
903.744,14.9635
906.864,14.9635
909.984,14.9635
913.105,14.9635
916.225,14.9635
919.345,14.9635
922.465,20.073
925.585,20.073
928.705,25.1825
931.825,25.1825
934.945,25.1825
938.066,30.292
941.186,30.292
944.306,30.292
947.426,30.292
950.546,30.292
953.666,30.292
956.786,30.292
959.906,30.292
963.027,30.292
966.147,30.292
969.267,30.292
972.387,30.292
975.507,30.292
978.627,30.292
981.747,30.292
984.867,30.292
987.988,30.292
991.108,30.292
994.228,30.292
997.348,25.1825
1000.47,20.073
1003.59,14.9635
1006.71,14.9635
1009.83,14.9635
1012.95,14.9635
1016.07,14.9635
1019.19,14.9635
1022.31,14.9635
1025.43,14.9635
1028.55,14.9635
1031.67,14.9635
1034.79,14.9635
1037.91,20.073
1041.03,20.073
1044.15,25.1825
1047.27,25.1825
1050.39,30.292
1053.51,30.292
1056.63,30.292
1059.75,30.292
1062.87,30.292
1065.99,35.4015
1069.11,35.4015
1072.23,30.292
1075.35,30.292
1078.47,25.1825
1081.59,25.1825
1084.71,25.1825
1087.83,25.1825
1090.95,25.1825
1094.07,25.1825
1097.19,25.1825
1100.31,25.1825
1103.43,25.1825
1106.55,25.1825
1109.67,25.1825
1112.79,25.1825
1115.91,25.1825
1119.03,25.1825
1122.15,25.1825
1125.27,25.1825
1128.39,25.1825
1131.51,25.1825
1134.63,25.1825
1137.75,25.1825
1140.87,25.1825
1143.99,25.1825
1147.11,25.1825
1150.23,25.1825
1153.35,25.1825
1156.47,25.1825
1159.59,25.1825
1162.71,30.292
1165.83,30.292
1168.95,30.292
1172.07,30.292
1175.2,30.292
1178.32,30.292
1181.44,30.292
1184.56,30.292
1187.68,30.292
1190.8,30.292
1193.92,30.292
1197.04,30.292
1200.16,30.292
1203.28,30.292
1206.4,30.292
1209.52,30.292
1212.64,30.292
1215.76,30.292
1218.88,30.292
1222,30.292
1225.12,30.292
1228.24,30.292
1231.36,30.292
1234.48,25.1825
1237.6,20.073
1240.72,20.073
1243.84,20.073
1246.96,20.073
1250.08,20.073
1253.2,20.073
1256.32,20.073
1259.44,20.073
1262.56,20.073
1265.68,25.1825
1268.8,25.1825
1271.92,30.292
1275.04,35.4015
1278.16,45.6204
1281.28,50.7299
1284.4,50.7299
1287.52,55.8394
1290.64,60.9489
1293.76,66.0584
1296.88,66.0584
1300,66.0584
1303.12,76.2774
1306.24,81.3869
1309.36,81.3869
1312.48,86.4964
1315.6,86.4964
1318.72,86.4964
1321.84,86.4964
1324.96,91.6058
1328.08,96.7153
1331.2,96.7153
1334.32,112.044
1337.44,106.934
1340.56,106.934
1343.68,106.934
1346.8,106.934
1349.92,106.934
1353.04,101.825
1356.16,96.7153
1359.28,96.7153
1362.4,86.4964
1365.52,76.2774
1368.64,71.1679
1371.76,71.1679
1374.88,71.1679
1378,71.1679
1381.12,66.0584
1384.24,60.9489
1387.36,50.7299
1390.48,45.6204
1393.6,40.5109
1396.72,35.4015
1399.84,35.4015
1402.96,30.292
1406.08,30.292
1409.2,30.292
1412.32,30.292
1415.44,30.292
1418.56,25.1825
1421.68,25.1825
1424.8,25.1825
1427.93,20.073
1431.05,20.073
1434.17,20.073
1437.29,20.073
1440.41,20.073
1443.53,20.073
1446.65,20.073
1449.77,20.073
1452.89,20.073
1456.01,20.073
1459.13,20.073
1462.25,20.073
1465.37,20.073
1468.49,20.073
1471.61,20.073
1474.73,20.073
1477.85,20.073
1480.97,25.1825
1484.09,25.1825
1487.21,30.292
1490.33,35.4015
1493.45,40.5109
1496.57,45.6204
1499.69,45.6204
1502.81,45.6204
1505.93,45.6204
1509.05,45.6204
1512.17,50.7299
1515.29,55.8394
1518.41,40.5109
1521.53,40.5109
1524.65,40.5109
1527.77,30.292
1530.89,25.1825
1534.01,25.1825
1537.13,25.1825
1540.25,25.1825
1543.37,25.1825
1546.49,25.1825
1549.61,30.292
1552.73,66.0584
1555.85,40.5109
1558.97,30.292
1562.09,30.292
1565.21,30.292
1568.33,30.292
1571.45,30.292
1574.57,25.1825
1577.69,30.292
1580.81,30.292
1583.93,30.292
1587.05,30.292
1590.17,30.292
1593.29,30.292
1596.41,35.4015
1599.53,35.4015
1602.65,35.4015
1605.77,40.5109
1608.89,45.6204
1612.01,50.7299
1615.13,50.7299
1618.25,50.7299
1621.37,50.7299
1624.49,50.7299
1627.61,45.6204
1630.73,40.5109
1633.85,40.5109
1636.97,40.5109
1640.09,40.5109
1643.21,35.4015
1646.33,35.4015
1649.45,35.4015
1652.57,35.4015
1655.69,35.4015
1658.81,40.5109
1661.93,40.5109
1665.05,40.5109
1668.17,40.5109
1671.29,40.5109
1674.41,40.5109
1677.54,40.5109
1680.66,40.5109
1683.78,40.5109
1686.9,40.5109
1690.02,40.5109
1693.14,35.4015
1696.26,30.292
1699.38,30.292
1702.5,30.292
1705.62,30.292
1708.74,30.292
1711.86,30.292
1714.98,30.292
1718.1,35.4015
1721.22,35.4015
1724.34,35.4015
1727.46,35.4015
1730.58,35.4015
1733.7,35.4015
1736.82,35.4015
1739.94,35.4015
1743.06,35.4015
1746.18,35.4015
1749.3,35.4015
1752.42,35.4015
1755.54,40.5109
1758.66,45.6204
1761.78,45.6204
1764.9,45.6204
1768.02,45.6204
1771.14,45.6204
1774.26,45.6204
1777.38,40.5109
1780.5,40.5109
1783.62,40.5109
1786.74,40.5109
1789.86,40.5109
1792.98,35.4015
1796.1,35.4015
1799.22,35.4015
1802.34,35.4015
1805.46,35.4015
1808.58,35.4015
1811.7,35.4015
1814.82,35.4015
1817.94,35.4015
1821.06,35.4015
1824.18,40.5109
1827.3,35.4015
1830.42,35.4015
1833.54,35.4015
1836.66,35.4015
1839.78,30.292
1842.9,30.292
1846.02,25.1825
1849.14,35.4015
1852.26,35.4015
1855.38,35.4015
1858.5,35.4015
1861.62,35.4015
1864.74,35.4015
1867.86,35.4015
1870.98,35.4015
1874.1,35.4015
1877.22,35.4015
1880.34,35.4015
1883.46,45.6204
1886.58,30.292
1889.7,25.1825
1892.82,30.292
1895.94,30.292
1899.06,30.292
1902.18,30.292
1905.3,30.292
1908.42,30.292
1911.54,30.292
1914.66,35.4015
1917.78,35.4015
1920.9,40.5109
1924.02,40.5109
1927.15,71.1679
1930.27,81.3869
1933.39,30.292
1936.51,30.292
1939.63,30.292
1942.75,30.292
1945.87,30.292
1948.99,30.292
1952.11,30.292
1955.23,30.292
1958.35,30.292
1961.47,30.292
1964.59,30.292
1967.71,30.292
1970.83,30.292
1973.95,30.292
1977.07,30.292
1980.19,30.292
1983.31,30.292
1986.43,30.292
1989.55,30.292
1992.67,30.292
1995.79,30.292
1998.91,30.292
2002.03,30.292
2005.15,30.292
2008.27,30.292
2011.39,30.292
2014.51,30.292
2017.63,30.292
2020.75,40.5109
2023.87,50.7299
2026.99,35.4015
2030.11,35.4015
2033.23,35.4015
2036.35,25.1825
2039.47,20.073
2042.59,20.073
2045.71,20.073
2048.83,20.073
2051.95,20.073
2055.07,20.073
2058.19,20.073
2061.31,20.073
2064.43,20.073
2067.55,20.073
2070.67,25.1825
2073.79,25.1825
2076.91,25.1825
2080.03,25.1825
2083.15,25.1825
2086.27,25.1825
2089.39,25.1825
2092.51,30.292
2095.63,30.292
2098.75,30.292
2101.87,30.292
2104.99,30.292
2108.11,30.292
2111.23,30.292
2114.35,30.292
2117.47,30.292
2120.59,30.292
2123.71,30.292
2126.83,30.292
2129.95,25.1825
2133.07,25.1825
2136.19,40.5109
2139.31,20.073
2142.43,20.073
2145.55,20.073
2148.67,20.073
2151.79,20.073
2154.91,20.073
2158.03,20.073
2161.15,20.073
2164.27,20.073
2167.39,20.073
2170.51,20.073
2173.63,25.1825
2176.76,30.292
2179.88,30.292
2183,30.292
2186.12,35.4015
2189.24,30.292
2192.36,30.292
2195.48,30.292
2198.6,30.292
2201.72,30.292
2204.84,30.292
2207.96,30.292
2211.08,30.292
2214.2,30.292
2217.32,30.292
2220.44,35.4015
2223.56,35.4015
2226.68,35.4015
2229.8,35.4015
2232.92,35.4015
2236.04,35.4015
2239.16,35.4015
2242.28,35.4015
2245.4,35.4015
2248.52,35.4015
2251.64,35.4015
2254.76,35.4015
2257.88,40.5109
2261,40.5109
2264.12,25.1825
2267.24,40.5109
2270.36,40.5109
2273.48,40.5109
2276.6,40.5109
2279.72,40.5109
2282.84,40.5109
2285.96,30.292
2289.08,50.7299
2292.2,60.9489
2295.32,35.4015
2298.44,35.4015
2301.56,35.4015
2304.68,35.4015
2307.8,30.292
2310.92,30.292
2314.04,25.1825
2317.16,25.1825
2320.28,25.1825
2323.4,25.1825
2326.52,35.4015
2329.64,45.6204
