,GP550R
RamanShit,Intensity
261.486,27.4143
265.154,27.4143
268.822,27.4143
272.49,27.4143
276.158,32.3988
279.826,42.3676
283.494,27.4143
287.162,27.4143
290.83,27.4143
294.498,27.4143
298.166,32.3988
301.834,32.3988
305.502,32.3988
309.17,37.3832
312.838,37.3832
316.506,37.3832
320.174,27.4143
323.842,37.3832
327.51,42.3676
331.178,52.3364
334.846,57.3209
338.514,62.3053
342.181,62.3053
345.849,62.3053
349.517,67.2897
353.185,87.2274
356.853,117.134
360.521,152.025
364.189,171.963
367.857,371.34
371.525,321.495
375.193,171.963
378.861,166.978
382.529,161.994
386.197,152.025
389.865,166.978
393.533,191.9
397.201,221.807
400.869,366.355
404.537,515.888
408.205,1512.77
411.873,1333.33
415.541,431.153
419.208,321.495
422.876,301.558
426.544,266.667
430.212,211.838
433.88,191.9
437.548,181.931
441.216,171.963
444.884,137.072
448.552,107.165
452.22,92.2118
455.888,72.2741
459.556,62.3053
463.224,62.3053
466.892,57.3209
470.56,52.3364
474.228,47.352
477.896,47.352
481.564,42.3676
485.232,37.3832
488.9,37.3832
492.568,27.4143
496.236,27.4143
499.903,27.4143
503.571,27.4143
507.239,27.4143
510.907,27.4143
514.575,32.3988
518.243,37.3832
521.911,37.3832
525.579,32.3988
529.247,32.3988
532.915,32.3988
536.583,32.3988
540.251,32.3988
543.919,27.4143
547.587,27.4143
551.255,27.4143
554.923,27.4143
558.591,52.3364
562.259,67.2897
565.927,127.103
569.595,186.916
573.263,67.2897
576.931,52.3364
580.598,37.3832
584.266,37.3832
587.934,32.3988
591.602,32.3988
595.27,32.3988
598.938,17.4455
602.606,32.3988
606.274,32.3988
609.942,27.4143
613.61,27.4143
617.278,27.4143
620.946,32.3988
624.614,37.3832
628.282,37.3832
631.95,42.3676
635.618,47.352
639.286,42.3676
642.954,37.3832
646.622,37.3832
650.29,32.3988
653.958,32.3988
657.625,32.3988
661.293,37.3832
664.961,42.3676
668.629,42.3676
672.297,42.3676
675.965,37.3832
679.633,37.3832
683.301,37.3832
686.969,32.3988
690.637,32.3988
694.305,32.3988
697.973,37.3832
701.641,22.4299
705.309,22.4299
708.977,22.4299
712.645,22.4299
716.313,32.3988
719.981,62.3053
723.649,82.243
727.317,112.15
730.985,196.885
734.653,326.48
738.32,401.246
741.988,530.841
745.656,396.262
749.324,391.277
752.992,311.526
756.66,181.931
760.328,107.165
763.996,72.2741
767.664,57.3209
771.332,47.352
775,42.3676
778.668,42.3676
782.336,42.3676
786.004,42.3676
789.672,42.3676
793.34,47.352
797.008,47.352
800.676,47.352
804.344,47.352
808.012,42.3676
811.68,42.3676
815.347,37.3832
819.015,37.3832
822.683,37.3832
826.351,37.3832
830.019,37.3832
833.687,37.3832
837.355,37.3832
841.023,32.3988
844.691,22.4299
848.359,32.3988
852.027,32.3988
855.695,32.3988
859.363,32.3988
863.031,62.3053
866.699,52.3364
870.367,27.4143
874.035,27.4143
877.703,27.4143
881.371,27.4143
885.039,27.4143
888.707,27.4143
892.375,27.4143
896.042,27.4143
899.71,17.4455
903.378,27.4143
907.046,27.4143
910.714,27.4143
914.382,27.4143
918.05,27.4143
921.718,27.4143
925.386,27.4143
929.054,27.4143
932.722,27.4143
936.39,27.4143
940.058,27.4143
943.726,27.4143
947.394,32.3988
951.062,32.3988
954.73,37.3832
958.398,37.3832
962.066,37.3832
965.734,37.3832
969.402,42.3676
973.069,42.3676
976.737,42.3676
980.405,37.3832
984.073,37.3832
987.741,32.3988
991.409,32.3988
995.077,32.3988
998.745,32.3988
1002.41,32.3988
1006.08,32.3988
1009.75,27.4143
1013.42,27.4143
1017.08,27.4143
1020.75,32.3988
1024.42,32.3988
1028.09,32.3988
1031.76,32.3988
1035.42,32.3988
1039.09,37.3832
1042.76,32.3988
1046.43,32.3988
1050.1,27.4143
1053.76,32.3988
1057.43,32.3988
1061.1,32.3988
1064.77,32.3988
1068.44,32.3988
1072.1,27.4143
1075.77,27.4143
1079.44,27.4143
1083.11,27.4143
1086.78,27.4143
1090.44,22.4299
1094.11,22.4299
1097.78,22.4299
1101.45,12.4611
1105.12,22.4299
1108.78,22.4299
1112.45,22.4299
1116.12,27.4143
1119.79,27.4143
1123.46,27.4143
1127.12,27.4143
1130.79,27.4143
1134.46,27.4143
1138.13,27.4143
1141.8,27.4143
1145.46,27.4143
1149.13,27.4143
1152.8,27.4143
1156.47,27.4143
1160.14,27.4143
1163.8,27.4143
1167.47,27.4143
1171.14,27.4143
1174.81,27.4143
1178.47,27.4143
1182.14,27.4143
1185.81,27.4143
1189.48,27.4143
1193.15,27.4143
1196.81,27.4143
1200.48,12.4611
1204.15,22.4299
1207.82,22.4299
1211.49,22.4299
1215.15,22.4299
1218.82,22.4299
1222.49,22.4299
1226.16,22.4299
1229.83,27.4143
1233.49,27.4143
1237.16,27.4143
1240.83,27.4143
1244.5,27.4143
1248.17,27.4143
1251.83,27.4143
1255.5,27.4143
1259.17,27.4143
1262.84,27.4143
1266.51,27.4143
1270.17,27.4143
1273.84,27.4143
1277.51,32.3988
1281.18,42.3676
1284.85,47.352
1288.51,47.352
1292.18,47.352
1295.85,52.3364
1299.52,57.3209
1303.19,57.3209
1306.85,57.3209
1310.52,57.3209
1314.19,57.3209
1317.86,57.3209
1321.53,57.3209
1325.19,57.3209
1328.86,57.3209
1332.53,62.3053
1336.2,62.3053
1339.86,62.3053
1343.53,62.3053
1347.2,62.3053
1350.87,62.3053
1354.54,62.3053
1358.2,57.3209
1361.87,57.3209
1365.54,57.3209
1369.21,52.3364
1372.88,47.352
1376.54,47.352
1380.21,42.3676
1383.88,37.3832
1387.55,32.3988
1391.22,32.3988
1394.88,27.4143
1398.55,27.4143
1402.22,17.4455
1405.89,27.4143
1409.56,27.4143
1413.22,32.3988
1416.89,32.3988
1420.56,32.3988
1424.23,37.3832
1427.9,37.3832
1431.56,37.3832
1435.23,37.3832
1438.9,37.3832
1442.57,37.3832
1446.24,32.3988
1449.9,32.3988
1453.57,32.3988
1457.24,32.3988
1460.91,32.3988
1464.58,27.4143
1468.24,27.4143
1471.91,32.3988
1475.58,32.3988
1479.25,32.3988
1482.92,32.3988
1486.58,32.3988
1490.25,32.3988
1493.92,32.3988
1497.59,32.3988
1501.25,17.4455
1504.92,37.3832
1508.59,37.3832
1512.26,37.3832
1515.93,37.3832
1519.59,37.3832
1523.26,37.3832
1526.93,37.3832
1530.6,37.3832
1534.27,37.3832
1537.93,37.3832
1541.6,37.3832
1545.27,37.3832
1548.94,32.3988
1552.61,37.3832
1556.27,37.3832
1559.94,37.3832
1563.61,37.3832
1567.28,37.3832
1570.95,37.3832
1574.61,37.3832
1578.28,32.3988
1581.95,37.3832
1585.62,37.3832
1589.29,37.3832
1592.95,42.3676
1596.62,42.3676
1600.29,37.3832
1603.96,22.4299
1607.63,37.3832
1611.29,37.3832
1614.96,37.3832
1618.63,37.3832
1622.3,37.3832
1625.97,37.3832
1629.63,37.3832
1633.3,37.3832
1636.97,32.3988
1640.64,32.3988
1644.31,27.4143
1647.97,32.3988
1651.64,37.3832
1655.31,37.3832
1658.98,42.3676
1662.64,42.3676
1666.31,42.3676
1669.98,42.3676
1673.65,47.352
1677.32,47.352
1680.98,47.352
1684.65,47.352
1688.32,47.352
1691.99,47.352
1695.66,47.352
1699.32,47.352
1702.99,42.3676
1706.66,37.3832
1710.33,37.3832
1714,37.3832
1717.66,37.3832
1721.33,37.3832
1725,32.3988
1728.67,32.3988
1732.34,32.3988
1736,32.3988
1739.67,32.3988
1743.34,32.3988
1747.01,27.4143
1750.68,27.4143
1754.34,27.4143
1758.01,32.3988
1761.68,37.3832
1765.35,42.3676
1769.02,42.3676
1772.68,42.3676
1776.35,47.352
1780.02,52.3364
1783.69,62.3053
1787.36,42.3676
1791.02,37.3832
1794.69,37.3832
1798.36,32.3988
1802.03,17.4455
1805.69,22.4299
1809.36,22.4299
1813.03,27.4143
1816.7,27.4143
1820.37,27.4143
1824.03,32.3988
1827.7,32.3988
1831.37,32.3988
1835.04,32.3988
1838.71,32.3988
1842.37,32.3988
1846.04,32.3988
1849.71,32.3988
1853.38,32.3988
1857.05,32.3988
1860.71,32.3988
1864.38,32.3988
1868.05,27.4143
1871.72,27.4143
1875.39,27.4143
1879.05,27.4143
1882.72,27.4143
1886.39,27.4143
1890.06,27.4143
1893.73,27.4143
1897.39,27.4143
1901.06,37.3832
1904.73,37.3832
1908.4,37.3832
1912.07,37.3832
1915.73,37.3832
1919.4,37.3832
1923.07,37.3832
1926.74,37.3832
1930.41,37.3832
1934.07,37.3832
1937.74,37.3832
1941.41,37.3832
1945.08,37.3832
1948.75,37.3832
1952.41,32.3988
1956.08,32.3988
1959.75,32.3988
1963.42,37.3832
1967.08,37.3832
1970.75,37.3832
1974.42,37.3832
1978.09,37.3832
1981.76,37.3832
1985.42,32.3988
1989.09,32.3988
1992.76,27.4143
1996.43,27.4143
2000.1,27.4143
2003.76,17.4455
2007.43,32.3988
2011.1,32.3988
2014.77,32.3988
2018.44,32.3988
2022.1,32.3988
2025.77,32.3988
2029.44,32.3988
2033.11,32.3988
2036.78,32.3988
2040.44,37.3832
2044.11,37.3832
2047.78,37.3832
2051.45,37.3832
2055.12,37.3832
2058.78,37.3832
2062.45,37.3832
2066.12,37.3832
2069.79,37.3832
2073.46,37.3832
2077.12,37.3832
2080.79,37.3832
2084.46,37.3832
2088.13,37.3832
2091.8,37.3832
2095.46,37.3832
2099.13,32.3988
2102.8,27.4143
2106.47,17.4455
2110.14,27.4143
2113.8,27.4143
2117.47,27.4143
2121.14,27.4143
2124.81,32.3988
2128.47,37.3832
2132.14,37.3832
2135.81,52.3364
2139.48,37.3832
2143.15,37.3832
2146.81,37.3832
2150.48,37.3832
2154.15,37.3832
2157.82,37.3832
2161.49,37.3832
2165.15,37.3832
2168.82,37.3832
2172.49,37.3832
2176.16,37.3832
2179.83,42.3676
2183.49,42.3676
2187.16,47.352
2190.83,47.352
2194.5,57.3209
2198.17,47.352
2201.83,42.3676
2205.5,42.3676
2209.17,37.3832
2212.84,32.3988
2216.51,32.3988
2220.17,32.3988
2223.84,27.4143
2227.51,32.3988
2231.18,37.3832
2234.85,32.3988
2238.51,32.3988
2242.18,32.3988
2245.85,32.3988
2249.52,27.4143
2253.19,27.4143
2256.85,27.4143
2260.52,27.4143
2264.19,27.4143
2267.86,27.4143
2271.53,32.3988
2275.19,32.3988
2278.86,32.3988
2282.53,32.3988
2286.2,32.3988
2289.86,32.3988
2293.53,32.3988
2297.2,32.3988
2300.87,27.4143
2304.54,17.4455
2308.2,27.4143
2311.87,27.4143
2315.54,27.4143
2319.21,27.4143
2322.88,27.4143
2326.54,27.4143
2330.21,22.4299
2333.88,22.4299
2337.55,17.4455
2341.22,12.4611
2344.88,12.4611
2348.55,12.4611
