,GP550R
RamanShit,Intensity
244.444,72.4638
247.619,72.4638
250.794,72.4638
253.968,72.4638
257.143,217.391
260.317,217.391
263.492,217.391
266.667,217.391
269.841,217.391
273.016,217.391
276.19,217.391
279.365,217.391
282.54,217.391
285.714,217.391
288.889,217.391
292.063,217.391
295.238,217.391
314.286,217.391
317.46,217.391
320.635,217.391
323.81,217.391
326.984,217.391
330.159,217.391
333.333,217.391
336.508,217.391
339.683,217.391
342.857,217.391
346.032,362.319
349.206,362.319
352.381,362.319
355.556,362.319
358.73,362.319
361.905,362.319
365.079,362.319
368.254,362.319
371.429,362.319
374.603,507.246
377.778,507.246
380.952,652.174
384.127,797.101
387.302,797.101
390.476,797.101
393.651,797.101
396.825,797.101
400,797.101
403.175,652.174
406.349,507.246
409.524,507.246
412.698,507.246
415.873,362.319
419.048,362.319
422.222,217.391
425.397,217.391
428.571,217.391
431.746,217.391
434.921,217.391
438.095,217.391
441.27,217.391
444.444,217.391
447.619,217.391
450.794,217.391
453.968,217.391
457.143,217.391
460.317,217.391
463.492,217.391
466.667,217.391
469.841,217.391
473.016,217.391
476.19,217.391
479.365,217.391
482.54,217.391
485.714,217.391
488.889,217.391
492.063,217.391
495.238,217.391
498.413,217.391
501.587,217.391
504.762,217.391
507.937,217.391
511.111,217.391
514.286,217.391
517.46,217.391
520.635,217.391
523.81,217.391
526.984,217.391
530.159,217.391
533.333,217.391
536.508,217.391
539.683,217.391
542.857,217.391
546.032,217.391
549.206,217.391
552.381,217.391
555.556,217.391
558.73,217.391
561.905,217.391
565.079,217.391
568.254,217.391
571.429,217.391
574.603,217.391
577.778,362.319
580.952,362.319
584.127,362.319
587.302,362.319
590.476,362.319
593.651,507.246
596.825,507.246
600,507.246
603.175,507.246
606.349,507.246
609.524,507.246
612.698,507.246
615.873,507.246
619.048,362.319
622.222,362.319
625.397,362.319
628.571,362.319
631.746,362.319
634.921,217.391
638.095,217.391
641.27,217.391
644.444,217.391
647.619,217.391
650.794,217.391
653.968,217.391
657.143,217.391
660.317,217.391
663.492,217.391
666.667,217.391
669.841,217.391
673.016,217.391
676.19,217.391
679.365,217.391
682.54,217.391
685.714,217.391
688.889,217.391
692.063,217.391
695.238,217.391
698.413,217.391
701.587,217.391
704.762,217.391
707.937,217.391
711.111,217.391
714.286,217.391
717.46,217.391
720.635,217.391
723.81,217.391
726.984,217.391
730.159,217.391
733.333,217.391
736.508,217.391
739.683,217.391
742.857,217.391
746.032,217.391
749.206,217.391
752.381,217.391
755.556,217.391
758.73,217.391
761.905,217.391
765.079,217.391
768.254,217.391
771.429,217.391
774.603,217.391
777.778,217.391
780.952,217.391
784.127,217.391
787.302,217.391
790.476,217.391
793.651,217.391
796.825,217.391
800,217.391
803.175,217.391
806.349,217.391
809.524,217.391
812.698,217.391
815.873,217.391
819.048,217.391
822.222,217.391
825.397,217.391
828.571,217.391
831.746,217.391
834.921,217.391
838.095,217.391
841.27,217.391
844.444,217.391
847.619,217.391
850.794,217.391
853.968,217.391
857.143,217.391
860.317,217.391
863.492,217.391
866.667,217.391
869.841,217.391
873.016,217.391
876.19,217.391
879.365,217.391
882.54,217.391
885.714,217.391
888.889,217.391
892.063,217.391
895.238,217.391
898.413,217.391
901.587,217.391
904.762,217.391
907.937,217.391
911.111,217.391
914.286,217.391
917.46,217.391
920.635,217.391
923.81,217.391
926.984,217.391
930.159,217.391
933.333,217.391
936.508,217.391
939.683,217.391
942.857,217.391
946.032,217.391
949.206,217.391
952.381,217.391
955.556,217.391
958.73,217.391
961.905,217.391
965.079,217.391
968.254,217.391
971.429,217.391
974.603,217.391
977.778,217.391
980.952,217.391
984.127,217.391
987.302,217.391
1009.52,217.391
1012.7,217.391
1015.87,217.391
1019.05,217.391
1022.22,217.391
1025.4,217.391
1028.57,217.391
1031.75,217.391
1034.92,217.391
1038.1,217.391
1041.27,217.391
1044.44,217.391
1047.62,217.391
1050.79,217.391
1053.97,217.391
1057.14,217.391
1060.32,217.391
1063.49,217.391
1066.67,217.391
1069.84,217.391
1073.02,217.391
1076.19,217.391
1079.37,217.391
1082.54,217.391
1085.71,217.391
1088.89,217.391
1092.06,217.391
1095.24,217.391
1098.41,217.391
1101.59,217.391
1104.76,217.391
1107.94,217.391
1111.11,217.391
1114.29,217.391
1117.46,217.391
1120.63,217.391
1123.81,217.391
1126.98,217.391
1130.16,217.391
1133.33,217.391
1136.51,217.391
1139.68,217.391
1142.86,217.391
1146.03,217.391
1149.21,217.391
1152.38,217.391
1155.56,217.391
1158.73,217.391
1161.9,217.391
1165.08,72.4638
1168.25,72.4638
1171.43,72.4638
1174.6,72.4638
1177.78,72.4638
1180.95,217.391
1184.13,217.391
1187.3,362.319
1190.48,362.319
1193.65,362.319
1196.83,507.246
1200,797.101
1203.17,942.029
1206.35,1231.88
1209.52,1521.74
1212.7,1811.59
1215.87,1956.52
1219.05,2246.38
1222.22,2536.23
1225.4,2826.09
1228.57,3115.94
1231.75,3260.87
1234.92,3405.8
1238.1,3695.65
1241.27,3695.65
1244.44,3695.65
1247.62,3695.65
1250.79,3695.65
1253.97,3550.72
1257.14,3115.94
1260.32,2681.16
1263.49,2536.23
1266.67,1956.52
1269.84,1521.74
1273.02,1086.96
1276.19,797.101
1279.37,652.174
1282.54,507.246
1285.71,652.174
1288.89,942.029
1292.06,1666.67
1295.24,2681.16
1298.41,4565.22
1301.59,5869.57
1304.76,8043.48
1307.94,11087
1311.11,14710.1
1314.29,18913
1317.46,21376.8
1320.63,22681.2
1323.81,22826.1
1326.98,26594.2
1330.16,24710.1
1333.33,22681.2
1336.51,22536.2
1339.68,21376.8
1342.86,17753.6
1346.03,13985.5
1349.21,11376.8
1352.38,7463.77
1355.56,4710.14
1358.73,3405.8
1361.9,2101.45
1365.08,1086.96
1368.25,1086.96
1371.43,797.101
1374.6,1086.96
1377.78,1086.96
1380.95,1666.67
1384.13,2681.16
1387.3,3405.8
1390.48,4130.43
1393.65,5434.78
1396.83,6594.2
1400,7173.91
1403.17,7753.62
1406.35,9202.9
1409.52,10217.4
1412.7,11087
1415.87,12246.4
1419.05,12681.2
1422.22,13260.9
1425.4,13840.6
1428.57,14130.4
1431.75,14130.4
1434.92,14565.2
1438.1,14275.4
1441.27,14130.4
1444.44,13840.6
1447.62,12826.1
1450.79,11666.7
1453.97,10652.2
1457.14,9637.68
1460.32,7898.55
1463.49,6449.28
1466.67,5000
1469.84,3115.94
1473.02,2246.38
1476.19,1376.81
1479.37,797.101
1482.54,652.174
1485.71,72.4638
1488.89,652.174
1492.06,1376.81
1495.24,2681.16
1498.41,4855.07
1501.59,7608.7
1504.76,10942
1507.94,13260.9
1511.11,14710.1
1514.29,17318.8
1517.46,18768.1
1520.63,20362.3
1523.81,19637.7
1526.98,18913
1530.16,18768.1
1533.33,18188.4
1536.51,16594.2
1539.68,15434.8
1542.86,14855.1
1546.03,12971
1549.21,11376.8
1552.38,9782.61
1555.56,8188.41
1558.73,7463.77
1561.9,6739.13
1565.08,5579.71
1568.25,4565.22
1571.43,4130.43
1574.6,3550.72
1577.78,2971.01
1580.95,2681.16
1584.13,2246.38
1587.3,1956.52
1590.48,1521.74
1593.65,1376.81
1596.83,1376.81
1600,1231.88
1603.17,1231.88
1606.35,1231.88
1609.52,1231.88
1612.7,1231.88
1615.87,1231.88
1619.05,1231.88
1622.22,1376.81
1625.4,1521.74
1628.57,1666.67
1631.75,1811.59
1634.92,1956.52
1638.1,2101.45
1641.27,2246.38
1644.44,2246.38
1647.62,2246.38
1650.79,2246.38
1653.97,2246.38
1657.14,2246.38
1660.32,2101.45
1663.49,1956.52
1666.67,1956.52
1669.84,1811.59
1673.02,1521.74
1676.19,1376.81
1679.37,1231.88
1682.54,1086.96
1685.71,942.029
1688.89,797.101
1692.06,652.174
1695.24,507.246
1698.41,362.319
1701.59,362.319
1704.76,362.319
1707.94,217.391
1711.11,217.391
1714.29,217.391
1717.46,217.391
1720.63,217.391
1723.81,72.4638
1726.98,72.4638
1730.16,217.391
1733.33,217.391
1736.51,217.391
1739.68,217.391
1742.86,217.391
1746.03,217.391
1749.21,217.391
1752.38,217.391
1755.56,217.391
1758.73,217.391
1761.9,217.391
1765.08,217.391
1768.25,217.391
1771.43,217.391
1774.6,217.391
1777.78,217.391
1780.95,217.391
1784.13,217.391
1787.3,217.391
1790.48,217.391
1793.65,217.391
1796.83,217.391
1800,217.391
1803.17,217.391
1806.35,217.391
1809.52,217.391
1812.7,217.391
1815.87,217.391
1819.05,217.391
1822.22,217.391
1825.4,217.391
1828.57,217.391
1831.75,217.391
1834.92,217.391
1838.1,217.391
1841.27,217.391
1844.44,217.391
1847.62,217.391
1850.79,217.391
1853.97,217.391
1857.14,217.391
1860.32,217.391
1863.49,217.391
1866.67,217.391
1869.84,217.391
1873.02,217.391
1876.19,217.391
1879.37,217.391
1882.54,217.391
1885.71,217.391
1888.89,217.391
1892.06,217.391
1895.24,217.391
1898.41,217.391
1901.59,217.391
1904.76,217.391
1907.94,217.391
1911.11,217.391
1914.29,217.391
1917.46,217.391
1920.63,217.391
1923.81,217.391
1926.98,217.391
1930.16,217.391
1933.33,217.391
1936.51,217.391
1939.68,217.391
1942.86,217.391
1946.03,217.391
1949.21,217.391
1952.38,217.391
1955.56,217.391
1958.73,217.391
1961.9,217.391
1965.08,217.391
1968.25,217.391
1971.43,217.391
1974.6,217.391
1977.78,217.391
1980.95,217.391
1984.13,217.391
1987.3,217.391
1990.48,217.391
1993.65,217.391
1996.83,217.391
2000,217.391
2003.17,217.391
2006.35,217.391
2009.52,217.391
2012.7,217.391
2015.87,217.391
2019.05,217.391
2022.22,217.391
2025.4,217.391
2028.57,217.391
2031.75,217.391
2034.92,217.391
2038.1,217.391
2041.27,217.391
2044.44,217.391
2047.62,217.391
2050.79,217.391
2053.97,217.391
2057.14,217.391
2060.32,217.391
2063.49,217.391
2066.67,217.391
2069.84,217.391
2073.02,217.391
2076.19,217.391
2079.37,217.391
2082.54,217.391
2085.71,217.391
2088.89,217.391
2092.06,217.391
2095.24,217.391
2098.41,217.391
2101.59,217.391
2104.76,217.391
2107.94,217.391
2111.11,217.391
2114.29,217.391
2117.46,217.391
2120.63,217.391
2123.81,217.391
2126.98,217.391
2130.16,72.4638
2133.33,72.4638
2136.51,72.4638
2139.68,217.391
2142.86,217.391
2146.03,217.391
2149.21,217.391
2152.38,217.391
2155.56,217.391
2158.73,362.319
2161.9,362.319
2165.08,507.246
2168.25,652.174
2171.43,797.101
2174.6,797.101
2177.78,942.029
2180.95,1231.88
2184.13,1231.88
2187.3,1231.88
2190.48,1521.74
2193.65,1666.67
2196.83,1811.59
2200,1811.59
2203.17,1956.52
2206.35,1956.52
2209.52,1956.52
2212.7,1956.52
2215.87,2101.45
2219.05,2101.45
2222.22,1956.52
2225.4,1956.52
2228.57,1956.52
2231.75,1956.52
2234.92,1811.59
2238.1,1811.59
2241.27,1811.59
2244.44,1666.67
2247.62,1666.67
2250.79,1666.67
2253.97,1666.67
2257.14,1666.67
2260.32,1666.67
2263.49,1666.67
2266.67,1666.67
2269.84,1666.67
2273.02,1666.67
2276.19,1666.67
2279.37,1666.67
2282.54,1666.67
2285.71,1666.67
2288.89,1666.67
2292.06,1666.67
2295.24,1521.74
2298.41,1521.74
2301.59,1376.81
2304.76,1231.88
2307.94,1231.88
2311.11,1086.96
2314.29,942.029
2317.46,652.174
2320.63,362.319
2323.81,217.391
2326.98,217.391
2330.16,217.391
2333.33,217.391
2336.51,217.391
