,GP550R
RamanShit,Intensity,
397.15,59.27,
400.16,64.16,
403.18,62.10,
406.19,51.21,
409.20,53.56,
412.21,84.34,
415.21,111.29,
418.21,114.53,
421.22,102.16,
424.22,86.68,
427.22,71.65,
430.21,64.68,
433.21,68.62,
436.20,76.15,
439.19,72.04,
442.18,56.29,
445.17,54.77,
448.16,71.68,
451.14,101.03,
454.13,113.98,
457.11,90.26,
460.09,71.48,
463.07,84.88,
466.04,108.46,
469.02,102.23,
471.99,76.38,
474.96,87.08,
477.93,111.03,
480.90,112.39,
483.87,109.21,
486.83,119.21,
489.80,131.01,
492.76,136.27,
495.72,159.22,
498.67,178.16,
501.63,144.30,
504.58,94.80,
507.54,102.02,
510.49,161.44,
513.44,201.48,
516.39,195.63,
519.33,168.03,
522.28,152.41,
525.22,151.26,
528.16,146.09,
531.10,121.25,
534.04,118.63,
536.97,153.04,
539.91,174.74,
542.84,157.02,
545.77,154.14,
548.70,180.98,
551.63,187.56,
554.56,152.82,
557.48,128.10,
560.40,128.65,
563.32,139.29,
566.24,145.98,
569.16,152.77,
572.08,161.35,
574.99,171.37,
577.91,184.54,
580.82,191.60,
583.72,187.70,
586.63,180.66,
589.54,182.53,
592.44,207.19,
595.35,237.88,
598.25,245.35,
601.15,241.23,
604.04,249.31,
606.94,264.70,
609.83,251.46,
612.73,231.73,
615.62,245.58,
618.51,283.86,
621.40,295.85,
624.28,284.99,
627.17,281.37,
630.05,279.25,
632.93,257.82,
635.81,244.23,
638.69,247.43,
641.57,256.58,
644.44,237.91,
647.31,205.20,
650.19,177.48,
653.06,175.19,
655.92,198.32,
658.79,212.22,
661.66,198.13,
664.52,188.61,
667.38,180.69,
670.24,150.51,
673.10,107.67,
675.96,101.02,
678.81,131.43,
681.66,149.18,
684.52,135.71,
687.37,121.57,
690.21,121.53,
693.06,126.11,
695.91,131.14,
698.75,129.64,
701.59,141.60,
704.43,165.74,
707.27,188.92,
710.11,199.74,
712.95,200.07,
715.78,200.24,
718.61,211.11,
721.44,218.29,
724.27,223.51,
727.10,217.99,
729.93,212.31,
732.75,211.49,
735.57,217.38,
738.39,221.08,
741.21,218.51,
744.03,208.54,
746.85,214.01,
749.66,223.10,
752.48,201.31,
755.29,151.90,
758.10,123.68,
760.91,144.00,
763.71,171.59,
766.52,178.39,
769.32,175.30,
772.12,164.48,
774.92,127.08,
777.72,89.81,
780.52,107.27,
783.32,179.49,
786.11,227.16,
788.90,212.09,
791.69,159.13,
794.48,123.80,
797.27,111.64,
800.06,117.84,
802.84,134.70,
805.62,145.84,
808.41,138.09,
811.18,120.97,
813.96,120.72,
816.74,143.22,
819.51,158.65,
822.29,161.34,
825.06,169.02,
827.83,182.39,
830.60,186.82,
833.37,175.13,
836.13,157.50,
838.89,133.42,
841.66,120.38,
844.42,145.39,
847.18,188.42,
849.94,195.74,
852.69,163.44,
855.45,136.84,
858.20,138.92,
860.95,145.90,
863.70,144.89,
866.45,133.87,
869.20,126.73,
871.94,146.97,
874.68,187.51,
877.43,199.30,
880.17,152.37,
882.91,94.63,
885.64,71.29,
888.38,65.58,
891.11,62.71,
893.85,65.26,
896.58,71.70,
899.31,71.43,
902.04,69.95,
904.76,66.71,
907.49,60.29,
910.21,79.79,
912.93,113.69,
915.65,115.31,
918.37,88.61,
921.09,85.65,
923.80,113.99,
926.52,122.97,
929.23,113.79,
931.94,113.27,
934.65,105.10,
937.36,90.44,
940.07,95.97,
942.77,117.41,
945.47,118.49,
948.18,91.94,
950.88,78.10,
953.58,99.97,
956.27,134.25,
958.97,158.48,
961.66,151.24,
964.36,124.47,
967.05,107.00,
969.74,103.83,
972.42,102.91,
975.11,101.63,
977.80,119.26,
980.48,165.05,
983.16,205.18,
985.84,215.79,
988.52,206.79,
991.20,200.83,
993.87,195.11,
996.55,187.55,
999.22,189.51,
1001.89,189.78,
1004.56,170.21,
1007.23,148.03,
1009.90,153.65,
1012.56,158.52,
1015.23,130.20,
1017.89,95.21,
1020.55,97.37,
1023.21,134.33,
1025.87,165.32,
1028.52,170.04,
1031.18,146.85,
1033.83,107.63,
1036.48,81.17,
1039.13,82.53,
1041.78,100.23,
1044.43,107.37,
1047.07,110.72,
1049.72,131.52,
1052.36,149.87,
1055.00,162.21,
1057.64,170.20,
1060.28,159.22,
1062.92,110.34,
1065.55,48.75,
1068.19,50.40,
1070.82,109.50,
1073.45,153.48,
1076.08,156.11,
1078.71,138.51,
1081.33,134.06,
1083.96,137.92,
1086.58,134.06,
1089.20,127.74,
1091.82,100.46,
1094.44,66.25,
1097.06,62.96,
1099.67,105.93,
1102.29,155.17,
1104.90,162.25,
1107.51,141.16,
1110.12,137.68,
1112.73,149.08,
1115.34,146.26,
1117.95,122.63,
1120.55,118.27,
1123.15,154.26,
1125.75,198.80,
1128.35,194.40,
1130.95,155.00,
1133.55,150.54,
1136.14,190.54,
1138.74,206.10,
1141.33,179.76,
1143.92,168.44,
1146.51,175.38,
1149.10,162.34,
1151.68,162.15,
1154.27,217.05,
1156.85,261.30,
1159.43,216.34,
1162.02,150.43,
1164.59,159.90,
1167.17,209.44,
1169.75,217.20,
1172.32,180.32,
1174.89,168.76,
1177.47,196.33,
1180.04,206.96,
1182.61,174.47,
1185.17,137.20,
1187.74,136.12,
1190.31,169.19,
1192.87,177.01,
1195.43,144.62,
1197.99,113.25,
1200.55,121.59,
1203.11,158.70,
1205.66,178.59,
1208.22,171.57,
1210.77,171.25,
1213.32,170.11,
1215.87,177.22,
1218.42,185.81,
1220.97,185.82,
1223.51,173.46,
1226.06,166.48,
1228.60,173.91,
1231.14,172.12,
1233.68,167.16,
1236.22,195.32,
1238.76,235.40,
1241.29,246.84,
1243.83,235.57,
1246.36,223.06,
1248.89,206.57,
1251.42,204.52,
1253.95,237.18,
1256.48,275.36,
1259.00,279.90,
1261.53,272.29,
1264.05,307.03,
1266.57,356.51,
1269.09,383.47,
1271.61,385.56,
1274.13,371.79,
1276.65,377.35,
1279.16,433.09,
1281.67,536.73,
1284.18,632.91,
1286.69,691.33,
1289.20,778.40,
1291.71,926.04,
1294.22,1139.15,
1296.72,1562.93,
1299.22,2461.38,
1301.73,4031.25,
1304.23,6256.14,
1306.72,8953.86,
1309.22,11826.89,
1311.72,14566.37,
1314.21,17046.10,
1316.71,19275.05,
1319.20,21109.69,
1321.69,22243.67,
1324.18,22547.91,
1326.67,22270.95,
1329.15,21739.88,
1331.64,21038.61,
1334.12,20040.94,
1336.60,18684.51,
1339.08,17039.44,
1341.56,15160.75,
1344.04,13059.21,
1346.52,10850.41,
1348.99,8763.88,
1351.46,6971.22,
1353.94,5459.66,
1356.41,4193.31,
1358.88,3181.60,
1361.35,2408.74,
1363.81,1805.10,
1366.28,1339.89,
1368.74,1024.68,
1371.20,831.78,
1373.67,684.77,
1376.12,570.26,
1378.58,499.13,
1381.04,470.87,
1383.50,447.52,
1385.95,408.32,
1388.40,354.69,
1390.85,300.60,
1393.30,255.80,
1395.75,235.22,
1398.20,240.00,
1400.65,259.29,
1403.09,255.36,
1405.53,238.43,
1407.98,232.69,
1410.42,241.70,
1412.86,232.51,
1415.29,197.93,
1417.73,166.70,
1420.17,164.86,
1422.60,189.44,
1425.03,213.74,
1427.46,201.97,
1429.89,158.42,
1432.32,118.62,
1434.75,125.56,
1437.17,159.70,
1439.59,173.26,
1442.02,154.09,
1444.44,138.21,
1446.86,149.52,
1449.28,154.74,
1451.70,144.58,
1454.11,143.24,
1456.53,150.17,
1458.94,136.35,
1461.35,100.52,
1463.76,85.84,
1466.17,100.65,
1468.58,110.66,
1470.99,110.76,
1473.39,119.88,
1475.79,145.78,
1478.20,157.60,
1480.60,144.29,
1483.00,124.06,
1485.40,111.83,
1487.79,104.54,
1490.19,100.02,
1492.58,115.27,
1494.97,142.24,
1497.37,151.06,
1499.76,140.53,
1502.15,141.33,
1504.53,159.60,
1506.92,162.87,
1509.31,137.42,
1511.69,121.42,
1514.07,117.45,
1516.45,106.78,
1518.83,88.47,
1521.21,82.80,
1523.59,87.00,
1525.96,93.10,
1528.34,107.13,
1530.71,131.88,
1533.08,127.33,
1535.45,95.95,
1537.82,76.56,
1540.19,81.13,
1542.55,90.52,
1544.92,92.19,
1547.28,95.17,
1549.65,105.54,
1552.01,108.43,
1554.37,109.73,
1556.73,113.81,
1559.08,111.89,
1561.44,112.52,
1563.79,126.24,
1566.15,148.09,
1568.50,155.20,
1570.85,134.97,
1573.20,116.45,
1575.54,128.67,
1577.89,162.26,
1580.24,184.51,
1582.58,171.34,
1584.92,139.26,
1587.26,127.96,
1589.60,138.71,
1591.94,144.75,
1594.28,132.95,
1596.62,112.08,
1598.95,93.79,
1601.29,83.92,
1603.62,92.17,
1605.95,125.94,
1608.28,159.63,
1610.61,162.13,
1612.93,129.61,
1615.26,88.18,
1617.58,75.52,
1619.91,103.88,
1622.23,136.21,
1624.55,142.68,
1626.87,124.01,
1629.18,99.69,
1631.50,80.63,
1633.82,72.19,
1636.13,84.97,
1638.44,107.28,
1640.75,121.99,
1643.07,130.04,
1645.37,130.79,
1647.68,127.56,
1649.99,126.51,
1652.29,118.43,
1654.60,100.03,
1656.90,90.54,
1659.20,109.84,
1661.50,122.38,
1663.80,115.39,
1666.09,124.06,
1668.39,164.85,
1670.69,193.80,
1672.98,183.52,
1675.27,143.81,
1677.56,98.56,
1679.85,68.72,
1682.14,79.16,
1684.43,111.89,
1686.71,114.09,
1689.00,76.18,
1691.28,49.35,
1693.56,72.42,
1695.84,121.13,
1698.12,148.09,
1700.40,150.13,
1702.68,149.38,
1704.95,135.01,
1707.23,111.61,
1709.50,101.05,
1711.77,115.13,
1714.04,124.75,
1716.31,121.89,
1718.58,133.03,
1720.85,152.91,
1723.11,144.81,
1725.38,123.03,
1727.64,114.76,
1729.90,117.85,
1732.16,110.60,
1734.42,110.80,
1736.68,138.68,
1738.94,153.92,
1741.19,113.29,
1743.45,59.61,
1745.70,65.02,
1747.95,117.80,
1750.20,145.08,
1752.45,129.03,
1754.70,122.10,
1756.95,132.71,
1759.19,127.42,
1761.43,108.81,
1763.68,101.30,
1765.92,97.49,
1768.16,97.35,
1770.40,105.15,
1772.64,119.24,
1774.88,117.42,
1777.11,107.75,
1779.34,114.24,
1781.58,128.46,
1783.81,137.46,
1786.04,140.35,
1788.27,118.91,
1790.50,90.62,
1792.72,78.57,
1794.95,88.25,
1797.17,100.56,
1799.40,102.99,
1801.62,120.58,
1803.84,130.70,
1806.06,110.76,
1808.28,89.53,
1810.50,95.64,
1812.71,128.30,
1814.92,152.91,
1817.14,152.88,
1819.35,138.60,
1821.56,112.81,
1823.77,99.78,
1825.98,91.80,
1828.19,77.50,
1830.39,68.17,
1832.60,79.38,
1834.80,100.91,
1837.00,104.01,
1839.20,87.88,
1841.40,83.96,
1843.60,97.16,
1845.80,98.58,
1848.00,66.93,
1850.19,35.55,
1852.38,50.75,
1854.58,101.86,
1856.77,120.33,
1858.96,94.28,
1861.15,71.37,
1863.33,80.17,
1865.52,100.89,
1867.71,103.37,
1869.89,103.24,
1872.07,109.78,
1874.26,94.21,
1876.44,69.10,
1878.62,54.09,
1880.79,55.50,
1882.97,48.81,
1885.15,30.74,
1887.32,42.19,
1889.49,77.38,
1891.67,109.94,
1893.84,130.19,
1896.01,121.16,
1898.17,87.05,
1900.34,51.72,
1902.51,60.94,
1904.67,104.23,
1906.84,121.89,
1909.00,111.01,
1911.16,108.39,
1913.32,109.73,
1915.48,93.28,
1917.64,83.94,
1919.79,107.48,
1921.95,120.42,
1924.10,93.22,
1926.26,64.44,
1928.41,64.89,
1930.56,67.55,
1932.71,61.66,
1934.86,55.91,
1937.00,52.01,
1939.15,53.27,
1941.29,65.28,
1943.44,81.21,
1945.58,89.96,
1947.72,91.00,
1949.86,87.02,
1952.00,78.60,
1954.14,84.58,
1956.27,104.39,
1958.41,114.00,
1960.54,109.33,
1962.68,96.35,
1964.81,84.16,
1966.94,85.81,
1969.07,105.96,
1971.20,106.32,
1973.32,70.76,
1975.45,50.12,
1977.57,87.99,
1979.70,138.54,
1981.82,145.13,
1983.94,111.79,
1986.06,78.44,
1988.18,54.60,
1990.30,59.12,
1992.41,91.56,
1994.53,117.70,
1996.64,114.75,
1998.76,114.42,
2000.87,139.55,
2002.98,152.09,
2005.09,124.83,
2007.20,101.70,
2009.31,115.71,
2011.41,135.19,
2013.52,120.10,
2015.62,95.21,
2017.72,112.12,
2019.82,166.36,
2021.92,204.42,
2024.02,194.82,
2026.12,176.10,
2028.22,179.03,
2030.31,187.24,
2032.41,165.34,
2034.50,120.35,
2036.59,79.76,
2038.69,64.44,
2040.77,86.61,
2042.86,133.26,
2044.95,159.22,
2047.04,138.73,
2049.12,99.42,
2051.21,111.72,
2053.29,162.56,
2055.37,188.60,
2057.45,156.17,
2059.53,102.94,
2061.61,80.54,
2063.69,75.80,
2065.77,58.14,
2067.84,53.19,
2069.92,61.98,
2071.99,69.73,
2074.06,63.69,
2076.13,62.53,
2078.20,72.30,
2080.27,69.12,
2082.33,46.21,
2084.40,51.49,
2086.47,98.23,
2088.53,153.40,
2090.59,156.17,
2092.65,100.54,
2094.72,58.75,
2096.77,63.72,
2098.83,70.13,
2100.89,63.43,
2102.95,68.52,
2105.00,100.07,
2107.05,112.84,
2109.11,89.66,
2111.16,67.41,
2113.21,58.56,
2115.26,53.76,
2117.31,64.03,
2119.35,91.34,
2121.40,107.11,
2123.44,92.32,
2125.49,79.24,
2127.53,72.47,
2129.57,64.98,
2131.61,78.62,
2133.65,132.92,
2135.69,168.79,
2137.73,115.88,
2139.76,26.64,
2141.80,3.85,
2143.83,48.89,
2145.86,101.17,
2147.89,120.22,
2149.92,120.69,
2151.95,120.12,
2153.98,116.30,
2156.01,104.80,
2158.03,81.03,
2160.06,62.49,
2162.08,76.62,
2164.11,107.88,
2166.13,128.28,
2168.15,128.67,
2170.17,112.45,
2172.19,93.80,
2174.20,90.26,
2176.22,105.97,
2178.23,116.38,
2180.25,107.04,
2182.26,109.28,
2184.27,125.13,
2186.28,128.68,
2188.29,117.05,
2190.30,109.47,
2192.31,113.80,
2194.31,110.10,
2196.32,97.05,
2198.32,88.00,
2200.33,88.39,
2202.33,94.27,
2204.33,82.05,
2206.33,54.44,
2208.33,54.99,
2210.32,98.65,
2212.32,130.22,
2214.31,107.26,
2216.31,88.39,
2218.30,115.15,
2220.29,140.85,
2222.28,129.60,
2224.28,119.04,
2226.26,141.97,
2228.25,155.98,
2230.24,135.08,
2232.22,105.72,
2234.21,91.21,
2236.19,89.17,
2238.17,92.30,
2240.16,98.60,
2242.14,102.03,
2244.12,108.46,
2246.09,133.52,
2248.07,153.32,
2250.05,140.11,
2252.02,117.04,
2253.99,131.38,
2255.97,157.66,
2257.94,140.77,
2259.91,111.87,
2261.88,116.33,
2263.85,139.38,
2265.81,141.83,
2267.78,128.80,
2269.75,122.53,
2271.71,122.68,
2273.67,126.55,
2275.64,137.92,
2277.60,140.12,
2279.56,131.69,
2281.52,118.97,
2283.47,114.27,
2285.43,116.24,
2287.39,120.25,
2289.34,122.62,
2291.29,124.60,
2293.25,126.53,
2295.20,129.54,
2297.15,131.33,
2299.10,133.92,
2301.05,136.22,
2302.99,138.56,
2304.94,140.91,
2306.88,143.25,
2308.83,145.58,
2310.77,147.91,
2312.71,150.24,
2314.66,152.56,
2316.60,154.88,
2318.53,157.20,
2320.47,159.51,
2322.41,161.81,
2324.34,164.12,
2326.28,166.42,
2328.21,168.71,
2330.15,171.00,
2332.08,173.29,
2334.01,175.57,
2335.94,177.85,
2337.87,180.13,
2339.79,182.40,
2341.72,184.67,
2343.65,186.93,
2345.57,189.19,
2347.49,191.44,
2349.42,193.70,
2351.34,195.93,
2353.26,198.21,
2355.18,200.39,
2357.09,202.66,
2359.01,204.59,
2360.93,207.24,
2362.84,208.84,
2364.76,210.42,
2366.67,215.66,
2368.58,215.69,
2370.49,205.03,
2372.40,187.68,
2374.31,184.44,
2376.22,195.65,
2378.13,199.38,
2380.03,197.11,
2381.94,206.50,
2383.84,217.85,
2385.74,216.09,
2387.64,209.92,
2389.55,224.27,
2391.45,233.02,
2393.34,214.15,
2395.24,194.08,
2397.14,196.78,
2399.03,196.41,
2400.93,174.33,
2402.82,161.01,
2404.71,184.00,
2406.61,224.36,
2408.50,251.09,
2410.39,250.31,
2412.27,228.31,
2414.16,209.27,
2416.05,212.66,
2417.93,229.30,
2419.82,236.09,
2421.70,244.93,
2423.58,253.60,
2425.47,246.09,
2427.35,224.72,
2429.23,223.51,
2431.10,240.95,
2432.98,241.50,
2434.86,225.71,
2436.74,231.31,
2438.61,241.50,
2440.48,232.56,
2442.35,209.71,
2444.23,210.91,
2446.10,225.11,
2447.97,217.04,
2449.83,201.81,
2451.70,213.47,
2453.57,249.09,
2455.43,270.81,
2457.30,255.33,
2459.16,245.57,
2461.02,271.60,
2462.89,301.83,
2464.75,280.50,
2466.61,220.30,
2468.46,195.42,
2470.32,212.15,
2472.18,222.64,
2474.03,212.12,
2475.89,214.54,
2477.74,234.54,
2479.59,243.04,
2481.45,238.67,
2483.30,236.36,
2485.15,236.88,
2487.00,244.36,
2488.84,248.64,
2490.69,236.77,
2492.54,201.59,
2494.38,179.00,
2496.22,189.55,
2498.07,211.48,
2499.91,215.74,
2501.75,216.12,
2503.59,220.19,
2505.43,232.40,
2507.27,237.21,
2509.10,226.85,
2510.94,197.61,
2512.77,173.44,
2514.61,178.70,
2516.44,204.98,
2518.27,203.82,
2520.10,169.04,
2521.93,136.47,
2523.76,161.55,
2525.59,218.54,
2527.42,227.17,
2529.24,176.50,
2531.07,138.75,
2532.89,156.35,
2534.72,177.86,
2536.54,164.72,
2538.36,158.95,
2540.18,181.51,
2542.00,193.45,
2543.82,180.14,
2545.64,159.36,
2547.45,159.86,
2549.27,163.49,
2551.08,157.10,
2552.90,162.39,
2554.71,190.82,
2556.52,219.54,
2558.33,215.46,
2560.14,182.67,
2561.95,180.48,
2563.76,200.22,
2565.57,211.44,
2567.37,198.79,
2569.18,175.87,
2570.98,162.61,
2572.79,155.92,
2574.59,162.96,
2576.39,174.80,
2578.19,170.30,
2579.99,149.63,
2581.79,120.78,
2583.58,111.71,
2585.38,135.60,
2587.18,173.32,
2588.97,194.16,
2590.76,185.47,
2592.56,168.66,
2594.35,141.87,
2596.14,123.43,
2597.93,134.44,
2599.72,167.24,
2601.51,176.77,
2603.29,159.62,
2605.08,154.44,
2606.86,148.94,
2608.65,122.71,
2610.43,118.77,
2612.21,156.72,
2614.00,180.62,
2615.78,143.95,
2617.56,112.08,
2619.33,144.35,
2621.11,191.16,
2622.89,201.32,
2624.67,179.58,
2626.44,168.11,
2628.21,171.70,
2629.99,171.69,
2631.76,162.64,
2633.53,147.82,
2635.30,133.06,
2637.07,136.68,
2638.84,154.68,
2640.61,163.56,
2642.37,141.16,
2644.14,119.34,
2645.90,133.29,
2647.67,165.60,
2649.43,173.52,
2651.19,150.44,
2652.95,131.83,
2654.71,140.11,
2656.47,159.25,
2658.23,162.39,
2659.99,145.64,
2661.74,141.94,
2663.50,158.34,
2665.25,158.65,
2667.01,133.34,
2668.76,113.97,
2670.51,124.35,
2672.26,139.94,
2674.01,129.99,
2675.76,104.72,
2677.51,83.99,
2679.26,77.99,
2681.00,84.02,
2682.75,93.98,
2684.49,96.30,
2686.24,99.32,
2687.98,104.92,
2689.72,109.73,
2691.46,113.72,
2693.20,113.27,
2694.94,108.55,
2696.68,102.13,
2698.42,92.87,
2700.15,94.77,
2701.89,93.57,
2703.62,89.20,
2705.35,83.49,
2707.09,69.84,
2708.82,65.14,
2710.55,75.88,
2712.28,99.68,
2714.01,112.04,
2715.74,98.75,
2717.46,85.64,
2719.19,88.10,
2720.92,92.37,
2722.64,96.83,
2724.36,104.68,
2726.09,109.57,
2727.81,92.87,
2729.53,76.37,
2731.25,81.76,
2732.97,93.16,
2734.69,83.45,
2736.41,75.05,
2738.12,96.91,
2739.84,123.35,
2741.55,126.26,
2743.26,112.66,
2744.98,98.38,
2746.69,90.68,
2748.40,97.97,
2750.11,122.58,
2751.82,132.18,
2753.53,103.89,
2755.24,82.55,
2756.94,89.53,
2758.65,94.31,
2760.36,85.57,
2762.06,93.26,
2763.76,127.03,
2765.46,139.02,
2767.17,114.18,
2768.87,104.66,
2770.57,125.86,
2772.27,140.99,
2773.96,114.99,
2775.66,78.18,
2777.36,82.57,
2779.05,112.05,
2780.75,123.94,
2782.44,104.20,
2784.13,74.72,
2785.82,76.47,
2787.51,99.57,
2789.21,117.54,
2790.89,115.81,
2792.58,111.38,
2794.27,116.38,
2795.96,107.50,
2797.64,81.35,
2799.33,71.77,
2801.01,83.52,
2802.69,107.66,
2804.38,133.85,
2806.06,153.21,
2807.74,160.56,
2809.42,155.94,
2811.10,139.25,
2812.77,116.18,
2814.45,102.20,
2816.13,108.12,
2817.80,120.89,
2819.48,134.28,
2821.15,144.62,
2822.82,115.11,
2824.50,58.55,
2826.17,50.33,
2827.83,105.43,
2829.50,158.34,
2831.17,170.46,
2832.84,158.30,
2834.51,140.42,
2836.17,126.95,
2837.84,138.99,
2839.50,165.65,
2841.17,168.94,
2842.83,157.74,
2844.49,153.29,
2846.15,154.65,
2847.81,156.28,
2849.47,153.20,
2851.13,144.10,
2852.78,126.41,
2854.44,118.31,
2856.10,141.34,
2857.75,161.62,
2859.40,157.08,
2861.06,137.57,
2862.71,125.80,
2864.36,121.95,
2866.01,123.11,
2867.66,141.60,
2869.31,157.26,
2870.96,144.43,
2872.61,132.64,
2874.25,144.44,
2875.90,165.22,
2877.54,162.78,
2879.19,147.39,
2880.83,137.67,
2882.47,140.63,
2884.11,149.20,
2885.75,151.49,
2887.39,142.00,
2889.03,135.76,
2890.67,136.60,
2892.31,138.68,
2893.94,136.05,
2895.58,140.81,
2897.21,150.21,
2898.85,168.45,
2900.48,186.90,
2902.11,179.86,
2903.74,140.76,
2905.37,107.46,
2907.00,119.48,
2908.63,162.35,
2910.26,186.15,
2911.89,178.76,
2913.51,163.60,
2915.14,165.26,
2916.76,186.49,
2918.39,206.88,
2920.01,203.06,
2921.63,180.86,
2923.25,161.30,
2924.87,152.49,
2926.49,146.12,
2928.11,143.67,
2929.73,158.70,
2931.35,171.26,
2932.96,161.14,
2934.58,168.64,
2936.19,209.48,
2937.81,246.88,
2939.42,232.41,
2941.03,178.43,
2942.64,142.30,
2944.25,153.91,
2945.87,193.96,
2947.47,219.97,
2949.08,206.10,
2950.69,203.21,
2952.29,232.27,
2953.90,251.02,
2955.51,226.42,
2957.11,188.58,
2958.71,171.60,
2960.32,171.25,
2961.92,173.82,
2963.52,187.13,
2965.12,201.08,
2966.72,201.38,
2968.32,200.40,
2969.92,210.73,
2971.51,217.72,
2973.11,207.35,
2974.70,185.91,
2976.30,170.52,
2977.89,161.01,
2979.48,154.16,
2981.08,167.94,
2982.67,190.81,
2984.26,205.95,
2985.85,204.33,
2987.44,193.93,
2989.02,198.88,
2990.61,211.19,
2992.20,208.52,
2993.78,188.69,
2995.37,171.28,
2996.95,185.62,
2998.53,200.72,
3000.12,189.91,
3001.70,169.02,
3003.28,156.73,
3004.86,162.67,
3006.44,176.60,
3008.02,184.27,
3009.59,180.00,
3011.17,167.34,
3012.75,170.26,
3014.32,186.88,
3015.90,192.89,
3017.47,177.00,
3019.04,166.22,
3020.62,170.44,
3022.19,177.06,
3023.76,185.13,
3025.33,197.65,
3026.90,206.25,
3028.46,187.10,
3030.03,156.62,
3031.60,152.81,
3033.16,169.87,
3034.73,185.98,
3036.29,195.19,
3037.86,200.13,
3039.42,202.74,
3040.98,192.31,
3042.54,184.84,
3044.10,187.11,
3045.66,197.09,
3047.22,200.59,
3048.78,204.97,
3050.34,207.90,
3051.89,197.69,
3053.45,191.39,
3055.01,210.66,
3056.56,243.74,
3058.11,252.28,
3059.67,228.56,
3061.22,214.78,
3062.77,222.40,
3064.32,231.51,
3065.87,223.22,
3067.42,196.77,
3068.96,187.90,
3070.51,202.65,
3072.06,229.80,
3073.60,242.94,
3075.15,236.44,
3076.69,212.35,
3078.24,187.96,
3079.78,182.11,
3081.32,186.29,
3082.86,191.11,
3084.40,212.81,
3085.94,239.76,
3087.48,238.80,
3089.02,196.09,
3090.56,161.03,
3092.09,148.22,
3093.63,152.47,
3095.16,183.41,
3096.70,224.27,
3098.23,231.10,
3099.76,210.66,
3101.29,231.31,
3102.83,290.22,
3104.36,294.99,
3105.89,223.87,
3107.42,154.79,
3108.94,163.65,
3110.47,212.79,
3112.00,243.67,
3113.52,251.72,
3115.05,251.72,
3116.57,252.96,
3118.10,245.12,
3119.62,239.32,
3121.14,248.05,
3122.66,247.87,
3124.18,248.38,
3125.70,261.29,
3127.22,279.98,
3128.74,274.93,
3130.26,245.42,
3131.78,233.11,
3133.29,239.10,
3134.81,234.88,
3136.32,231.23,
3137.84,247.22,
3139.35,267.75,
3140.86,269.24,
3142.37,262.98,
3143.88,270.23,
3145.39,274.81,
3146.90,256.79,
3148.41,243.42,
3149.92,262.78,
3151.43,281.16,
3152.93,257.09,
3154.44,200.40,
3155.94,191.33,
3157.45,237.42,
3158.95,267.70,
3160.46,258.54,
3161.96,254.79,
3163.46,292.04,
3164.96,328.41,
3166.46,304.22,
3167.96,237.31,
3169.46,180.95,
3170.95,195.90,
3172.45,261.97,
3173.95,298.32,
3175.44,283.62,
3176.94,257.83,
3178.43,266.25,
3179.92,284.39,
3181.41,281.55,
3182.91,285.23,
3184.40,290.94,
3185.89,281.73,
3187.38,268.06,
3188.87,275.37,
3190.36,294.05,
3191.84,272.82,
3193.33,235.36,
3194.82,235.93,
3196.30,257.81,
3197.78,273.36,
3199.27,278.58,
3200.75,295.05,
