,GP550R
RamanShit,Intensity
257.655,5293.16
261.337,5456.03
265.019,5618.89
268.702,5618.89
272.384,5781.76
276.066,5781.76
279.748,5944.63
283.43,6107.49
287.112,6270.36
290.795,6433.22
294.477,6758.96
298.159,6921.82
301.841,7247.56
305.523,7899.02
309.205,8550.49
312.888,8876.22
316.57,9853.42
320.252,10667.8
323.934,10667.8
327.616,10830.6
331.298,10830.6
334.981,10667.8
338.663,10504.9
342.345,10342
346.027,9853.42
349.709,9364.82
353.391,9201.95
357.074,9201.95
360.756,8876.22
364.438,8713.36
368.12,8713.36
371.802,8713.36
375.484,8713.36
379.167,8713.36
382.849,8713.36
386.531,8713.36
390.213,8713.36
393.895,8876.22
397.578,9039.09
401.26,9039.09
404.942,9201.95
408.624,9364.82
412.306,9690.55
415.988,9690.55
419.671,9853.42
423.353,10179.2
427.035,10667.8
430.717,10993.5
434.399,10993.5
438.081,10993.5
441.764,10993.5
445.446,10993.5
449.128,10993.5
452.81,10993.5
456.492,10993.5
460.174,10993.5
463.857,10993.5
467.539,11156.4
471.221,11156.4
474.903,11156.4
478.585,11156.4
482.267,11319.2
485.95,11482.1
489.632,11645
493.314,11645
496.996,11807.8
500.678,11807.8
504.36,11970.7
508.043,12133.6
511.725,12296.4
515.407,12296.4
519.089,12459.3
522.771,12622.1
526.453,12785
530.136,12947.9
533.818,13110.7
537.5,13110.7
541.182,13436.5
544.864,13599.3
548.547,13762.2
552.229,13762.2
555.911,13762.2
559.593,14087.9
563.275,14250.8
566.957,14413.7
570.64,14576.5
574.322,14739.4
578.004,14902.3
581.686,14902.3
585.368,15065.1
589.05,15228
592.733,15553.7
596.415,15716.6
600.097,15716.6
603.779,16042.3
607.461,16205.2
611.143,16368.1
614.826,16368.1
618.508,16530.9
622.19,16856.7
625.872,17019.5
629.554,17019.5
633.236,17182.4
636.919,17345.3
640.601,17671
644.283,17671
647.965,17833.9
651.647,18159.6
655.329,18322.5
659.012,18485.3
662.694,18648.2
666.376,18973.9
670.058,19136.8
673.74,19299.7
677.422,19462.5
681.105,19788.3
684.787,19951.1
688.469,19951.1
692.151,20276.9
695.833,20439.7
699.516,20765.5
703.198,20928.3
706.88,21091.2
710.562,21254.1
714.244,21579.8
717.926,21579.8
721.609,21742.7
725.291,22068.4
728.973,22394.1
732.655,22394.1
736.337,22557
740.019,22882.7
743.702,23045.6
747.384,23208.5
751.066,23371.3
754.748,23534.2
758.43,23697.1
762.112,23859.9
765.795,24022.8
769.477,24185.7
773.159,24348.5
776.841,24511.4
780.523,24674.3
784.205,24837.1
787.888,25162.9
791.57,25488.6
795.252,25488.6
798.934,25651.5
802.616,25977.2
806.298,26302.9
809.981,26302.9
813.663,26465.8
817.345,26791.5
821.027,26954.4
824.709,27117.3
828.391,27280.1
832.074,27605.9
835.756,27605.9
839.438,27768.7
843.12,27931.6
846.802,28094.5
850.484,28257.3
854.167,28257.3
857.849,28257.3
861.531,28257.3
865.213,28257.3
868.895,28257.3
872.578,28257.3
876.26,28257.3
879.942,28257.3
883.624,28257.3
887.306,28257.3
890.988,28257.3
894.671,28257.3
898.353,28257.3
902.035,28257.3
905.717,28257.3
909.399,28257.3
913.081,28257.3
916.764,28257.3
920.446,28257.3
924.128,28257.3
927.81,28257.3
931.492,28257.3
935.174,28257.3
938.857,28257.3
942.539,28420.2
946.221,28420.2
949.903,28420.2
953.585,28420.2
957.267,28583.1
960.95,28583.1
964.632,28583.1
968.314,28583.1
971.996,28583.1
975.678,28583.1
979.36,28420.2
983.043,28420.2
986.725,28583.1
990.407,28583.1
994.089,28583.1
997.771,28583.1
1001.45,28583.1
1005.14,28583.1
1008.82,28583.1
1012.5,28745.9
1016.18,28745.9
1019.86,28745.9
1023.55,28908.8
1027.23,28908.8
1030.91,28908.8
1034.59,28908.8
1038.28,28908.8
1041.96,28908.8
1045.64,29071.7
1049.32,29071.7
1053,29071.7
1056.69,29071.7
1060.37,29071.7
1064.05,29071.7
1067.73,29071.7
1071.41,29071.7
1075.1,29071.7
1078.78,29071.7
1082.46,29071.7
1086.14,29071.7
1089.83,29071.7
1093.51,28908.8
1097.19,28908.8
1100.87,29071.7
1104.55,29071.7
1108.24,29071.7
1111.92,29071.7
1115.6,29071.7
1119.28,29071.7
1122.97,29071.7
1126.65,29071.7
1130.33,29071.7
1134.01,29071.7
1137.69,28908.8
1141.38,28908.8
1145.06,29071.7
1148.74,29071.7
1152.42,29071.7
1156.1,29071.7
1159.79,29071.7
1163.47,29071.7
1167.15,29071.7
1170.83,29071.7
1174.52,29071.7
1178.2,29071.7
1181.88,29071.7
1185.56,29071.7
1189.24,29071.7
1192.93,29071.7
1196.61,29071.7
1200.29,29071.7
1203.97,29071.7
1207.66,29071.7
1211.34,29071.7
1215.02,29071.7
1218.7,29071.7
1222.38,29071.7
1226.07,29071.7
1229.75,29071.7
1233.43,28908.8
1237.11,28908.8
1240.79,28908.8
1244.48,28908.8
1248.16,28908.8
1251.84,28908.8
1255.52,28908.8
1259.21,28908.8
1262.89,28908.8
1266.57,28908.8
1270.25,28908.8
1273.93,28908.8
1277.62,28908.8
1281.3,28908.8
1284.98,28908.8
1288.66,28908.8
1292.34,28908.8
1296.03,28908.8
1299.71,28908.8
1303.39,28908.8
1307.07,28908.8
1310.76,29071.7
1314.44,29071.7
1318.12,29071.7
1321.8,29397.4
1325.48,29723.1
1329.17,37215
1332.85,33469.1
1336.53,29886
1340.21,29723.1
1343.9,29234.5
1347.58,29071.7
1351.26,29071.7
1354.94,29071.7
1358.62,28908.8
1362.31,28908.8
1365.99,28908.8
1369.67,28908.8
1373.35,28908.8
1377.03,28745.9
1380.72,28745.9
1384.4,28908.8
1388.08,28908.8
1391.76,28908.8
1395.45,28908.8
1399.13,28908.8
1402.81,28908.8
1406.49,28908.8
1410.17,28908.8
1413.86,28908.8
1417.54,28908.8
1421.22,28908.8
1424.9,28908.8
1428.59,28908.8
1432.27,28908.8
1435.95,28908.8
1439.63,29071.7
1443.31,29071.7
1447,29071.7
1450.68,29071.7
1454.36,29071.7
1458.04,29071.7
1461.72,29071.7
1465.41,29071.7
1469.09,29071.7
1472.77,29071.7
1476.45,29071.7
1480.14,29071.7
1483.82,29071.7
1487.5,29071.7
1491.18,29071.7
1494.86,29071.7
1498.55,29234.5
1502.23,29234.5
1505.91,29234.5
1509.59,29234.5
1513.28,29234.5
1516.96,29234.5
1520.64,29397.4
1524.32,29560.3
1528,29723.1
1531.69,29723.1
1535.37,29723.1
1539.05,29886
1542.73,30048.9
1546.41,30048.9
1550.1,30211.7
1553.78,30374.6
1557.46,30374.6
1561.14,30537.5
1564.83,30537.5
1568.51,30537.5
1572.19,30700.3
1575.87,30863.2
1579.55,30863.2
1583.24,31026.1
1586.92,31188.9
1590.6,31514.7
1594.28,31514.7
1597.97,31514.7
1601.65,31514.7
1605.33,31677.5
1609.01,31677.5
1612.69,31677.5
1616.38,31677.5
1620.06,32003.3
1623.74,32003.3
1627.42,32166.1
1631.1,32329
1634.79,32491.9
1638.47,32491.9
1642.15,32654.7
1645.83,32817.6
1649.52,32817.6
1653.2,32817.6
1656.88,32980.5
1660.56,33143.3
1664.24,33143.3
1667.93,33306.2
1671.61,33469.1
1675.29,33631.9
1678.97,33794.8
1682.66,33794.8
1686.34,33794.8
1690.02,33957.7
1693.7,34283.4
1697.38,34283.4
1701.07,34446.3
1704.75,34609.1
1708.43,34772
1712.11,34934.9
1715.79,34934.9
1719.48,34934.9
1723.16,35260.6
1726.84,35586.3
1730.52,35586.3
1734.21,35749.2
1737.89,35912.1
1741.57,35912.1
1745.25,36074.9
1748.93,36237.8
1752.62,36237.8
1756.3,36237.8
1759.98,36237.8
1763.66,36400.7
1767.34,36726.4
1771.03,36889.3
1774.71,36889.3
1778.39,37052.1
1782.07,37215
1785.76,37540.7
1789.44,37703.6
1793.12,37866.4
1796.8,38192.2
1800.48,38355
1804.17,38355
1807.85,38517.9
1811.53,38843.6
1815.21,39006.5
1818.9,39006.5
1822.58,39006.5
1826.26,39169.4
1829.94,39332.2
1833.62,39495.1
1837.31,39658
1840.99,39658
1844.67,39658
1848.35,39658
1852.03,39658
1855.72,39983.7
1859.4,40146.6
1863.08,40146.6
1866.76,40146.6
1870.45,40309.4
1874.13,40309.4
1877.81,40309.4
1881.49,40472.3
1885.17,40472.3
1888.86,40472.3
1892.54,40472.3
1896.22,40635.2
1899.9,40635.2
1903.59,40635.2
1907.27,40635.2
1910.95,40635.2
1914.63,40798
1918.31,40798
1922,40798
1925.68,40798
1929.36,40960.9
1933.04,40960.9
1936.72,41123.8
1940.41,41123.8
1944.09,41123.8
1947.77,41123.8
1951.45,41123.8
1955.14,41123.8
1958.82,41123.8
1962.5,41123.8
1966.18,41123.8
1969.86,41123.8
1973.55,41123.8
1977.23,41123.8
1980.91,40960.9
1984.59,40960.9
1988.28,40960.9
1991.96,40960.9
1995.64,40798
1999.32,40798
2003,40635.2
2006.69,40472.3
2010.37,40472.3
2014.05,40472.3
2017.73,40309.4
2021.41,40309.4
2025.1,40146.6
2028.78,40146.6
2032.46,40146.6
2036.14,39983.7
2039.83,39658
2043.51,39658
2047.19,39658
2050.87,39658
2054.55,39332.2
2058.24,39169.4
2061.92,39169.4
2065.6,39006.5
2069.28,38680.8
2072.97,38517.9
2076.65,38517.9
2080.33,38355
2084.01,38029.3
2087.69,37866.4
2091.38,37866.4
2095.06,37703.6
2098.74,37377.9
2102.42,37215
2106.1,37215
2109.79,37052.1
2113.47,36726.4
2117.15,36400.7
2120.83,36400.7
2124.52,36400.7
2128.2,36074.9
2131.88,35749.2
2135.56,35749.2
2139.24,35423.5
2142.93,35260.6
2146.61,35097.7
2150.29,35097.7
2153.97,34772
2157.66,34609.1
2161.34,34446.3
2165.02,34446.3
2168.7,34120.5
2172.38,33794.8
2176.07,33631.9
2179.75,33631.9
2183.43,33306.2
2187.11,33143.3
2190.79,32980.5
2194.48,32980.5
2198.16,32817.6
2201.84,32491.9
2205.52,32329
2209.21,32003.3
2212.89,31840.4
2216.57,31677.5
2220.25,31351.8
2223.93,31026.1
2227.62,31026.1
2231.3,30700.3
2234.98,30374.6
2238.66,30374.6
2242.34,30374.6
2246.03,30048.9
2249.71,29723.1
2253.39,29560.3
2257.07,29397.4
2260.76,29071.7
2264.44,28908.8
2268.12,28745.9
2271.8,28583.1
2275.48,28420.2
2279.17,27931.6
2282.85,27768.7
2286.53,27768.7
2290.21,27443
2293.9,27117.3
2297.58,26954.4
2301.26,26954.4
2304.94,26791.5
2308.62,26465.8
2312.31,26302.9
2315.99,26140.1
2319.67,25977.2
2323.35,25651.5
2327.03,25651.5
2330.72,25488.6
2334.4,25325.7
2338.08,25162.9
2341.76,25000
2345.45,25000
2349.13,24837.1
2352.81,25162.9
2356.49,37540.7
