,GP550R
RamanShit,Intensity
258.629,79.0514
261.694,79.0514
264.758,79.0514
267.823,79.0514
270.887,79.0514
273.952,79.0514
277.016,79.0514
280.081,79.0514
283.145,316.206
286.21,316.206
289.274,79.0514
292.339,79.0514
295.403,79.0514
298.468,79.0514
301.532,79.0514
304.597,316.206
307.661,316.206
310.726,316.206
313.79,553.36
316.855,1264.82
319.919,2687.75
322.984,4584.98
326.048,10276.7
329.113,10988.1
332.177,5296.44
335.242,3873.52
338.306,1501.98
341.371,553.36
344.435,316.206
347.5,79.0514
350.565,79.0514
353.629,79.0514
356.694,79.0514
359.758,79.0514
362.823,79.0514
365.887,79.0514
368.952,79.0514
372.016,79.0514
375.081,79.0514
378.145,79.0514
381.21,79.0514
384.274,79.0514
387.339,79.0514
390.403,79.0514
393.468,79.0514
396.532,79.0514
399.597,79.0514
402.661,79.0514
405.726,79.0514
408.79,79.0514
411.855,79.0514
414.919,79.0514
417.984,79.0514
421.048,316.206
424.113,316.206
427.177,553.36
430.242,1027.67
433.306,2213.44
436.371,5533.6
439.435,14308.3
442.5,20711.5
445.565,33280.6
448.629,20711.5
451.694,14545.5
454.758,5770.75
457.823,2213.44
460.887,1027.67
463.952,553.36
467.016,316.206
470.081,316.206
473.145,316.206
476.21,316.206
479.274,553.36
482.339,790.514
485.403,790.514
488.468,1027.67
491.532,1501.98
494.597,2687.75
497.661,2924.9
500.726,1264.82
503.79,790.514
506.855,316.206
509.919,79.0514
512.984,79.0514
516.048,79.0514
519.113,79.0514
522.177,79.0514
525.242,79.0514
528.306,79.0514
531.371,79.0514
534.435,79.0514
537.5,79.0514
540.565,79.0514
543.629,316.206
546.694,553.36
549.758,790.514
552.823,790.514
555.887,553.36
558.952,553.36
562.016,316.206
565.081,79.0514
568.145,79.0514
571.21,79.0514
574.274,79.0514
577.339,79.0514
580.403,79.0514
583.468,79.0514
586.532,79.0514
589.597,79.0514
592.661,79.0514
595.726,79.0514
598.79,316.206
601.855,316.206
604.919,316.206
607.984,553.36
611.048,316.206
614.113,316.206
617.177,316.206
620.242,316.206
623.306,79.0514
626.371,79.0514
629.435,79.0514
632.5,79.0514
635.565,79.0514
638.629,316.206
641.694,316.206
644.758,316.206
647.823,553.36
650.887,790.514
653.952,1027.67
657.016,1976.28
660.081,2687.75
663.145,2687.75
666.21,3162.06
669.274,2450.59
672.339,2213.44
675.403,1501.98
678.468,1027.67
681.532,553.36
684.597,316.206
687.661,316.206
690.726,79.0514
693.79,79.0514
696.855,79.0514
699.919,79.0514
702.984,79.0514
706.048,79.0514
709.113,79.0514
712.177,79.0514
715.242,79.0514
718.306,79.0514
721.371,79.0514
724.435,79.0514
727.5,79.0514
730.565,79.0514
733.629,79.0514
736.694,79.0514
739.758,79.0514
742.823,79.0514
745.887,79.0514
748.952,79.0514
752.016,79.0514
755.081,79.0514
758.145,79.0514
761.21,79.0514
764.274,79.0514
767.339,79.0514
770.403,79.0514
773.468,79.0514
776.532,79.0514
779.597,79.0514
782.661,79.0514
785.726,79.0514
788.79,316.206
791.855,316.206
794.919,79.0514
797.984,79.0514
801.048,79.0514
804.113,79.0514
807.177,79.0514
810.242,79.0514
813.306,79.0514
816.371,79.0514
819.435,79.0514
822.5,79.0514
825.565,79.0514
828.629,79.0514
831.694,79.0514
834.758,79.0514
837.823,79.0514
840.887,79.0514
843.952,79.0514
847.016,79.0514
850.081,79.0514
853.145,79.0514
856.21,79.0514
859.274,79.0514
862.339,79.0514
865.403,79.0514
868.468,79.0514
871.532,79.0514
874.597,79.0514
877.661,79.0514
880.726,79.0514
883.79,79.0514
886.855,79.0514
889.919,79.0514
892.984,79.0514
896.048,79.0514
899.113,79.0514
902.177,79.0514
905.242,79.0514
908.306,79.0514
911.371,79.0514
914.435,79.0514
917.5,79.0514
920.565,79.0514
923.629,79.0514
926.694,79.0514
929.758,79.0514
932.823,79.0514
935.887,79.0514
938.952,79.0514
942.016,79.0514
945.081,79.0514
948.145,79.0514
951.21,79.0514
954.274,79.0514
957.339,79.0514
960.403,79.0514
963.468,79.0514
966.532,79.0514
969.597,79.0514
972.661,79.0514
975.726,79.0514
978.79,79.0514
981.855,79.0514
984.919,79.0514
987.984,79.0514
991.048,79.0514
994.113,79.0514
997.177,79.0514
1000.24,79.0514
1003.31,79.0514
1006.37,79.0514
1009.44,79.0514
1012.5,79.0514
1015.56,79.0514
1018.63,79.0514
1021.69,79.0514
1024.76,79.0514
1027.82,79.0514
1030.89,79.0514
1033.95,79.0514
1037.02,79.0514
1040.08,79.0514
1043.15,316.206
1046.21,553.36
1049.27,790.514
1052.34,790.514
1055.4,553.36
1058.47,316.206
1061.53,79.0514
1064.6,79.0514
1067.66,79.0514
1070.73,79.0514
1073.79,79.0514
1076.85,79.0514
1079.92,79.0514
1082.98,79.0514
1086.05,79.0514
1089.11,79.0514
1092.18,79.0514
1095.24,79.0514
1098.31,79.0514
1101.37,79.0514
1104.44,79.0514
1107.5,79.0514
1110.56,79.0514
1113.63,79.0514
1116.69,79.0514
1119.76,79.0514
1122.82,79.0514
1125.89,79.0514
1128.95,79.0514
1132.02,79.0514
1135.08,316.206
1138.15,316.206
1141.21,553.36
1144.27,553.36
1147.34,553.36
1150.4,790.514
1153.47,790.514
1156.53,790.514
1159.6,1027.67
1162.66,1264.82
1165.73,1264.82
1168.79,1264.82
1171.85,1501.98
1174.92,1264.82
1177.98,1027.67
1181.05,1027.67
1184.11,1027.67
1187.18,1027.67
1190.24,1027.67
1193.31,790.514
1196.37,553.36
1199.44,316.206
1202.5,79.0514
1205.56,79.0514
1208.63,79.0514
1211.69,316.206
1214.76,316.206
1217.82,553.36
1220.89,553.36
1223.95,553.36
1227.02,553.36
1230.08,553.36
1233.15,316.206
1236.21,316.206
1239.27,316.206
1242.34,316.206
1245.4,79.0514
1248.47,79.0514
1251.53,79.0514
1254.6,79.0514
1257.66,79.0514
1260.73,79.0514
1263.79,79.0514
1266.85,79.0514
1269.92,79.0514
1272.98,316.206
1276.05,316.206
1279.11,316.206
1282.18,553.36
1285.24,553.36
1288.31,316.206
1291.37,316.206
1294.44,316.206
1297.5,79.0514
1300.56,79.0514
1303.63,79.0514
1306.69,79.0514
1309.76,79.0514
1312.82,79.0514
1315.89,79.0514
1318.95,79.0514
1322.02,79.0514
1325.08,316.206
1328.15,316.206
1331.21,553.36
1334.27,790.514
1337.34,790.514
1340.4,1027.67
1343.47,1027.67
1346.53,1264.82
1349.6,1264.82
1352.66,1027.67
1355.73,1027.67
1358.79,790.514
1361.85,790.514
1364.92,553.36
1367.98,553.36
1371.05,316.206
1374.11,316.206
1377.18,316.206
1380.24,79.0514
1383.31,79.0514
1386.37,79.0514
1389.44,79.0514
1392.5,79.0514
1395.56,79.0514
1398.63,79.0514
1401.69,316.206
1404.76,316.206
1407.82,316.206
1410.89,316.206
1413.95,316.206
1417.02,316.206
1420.08,316.206
1423.15,79.0514
1426.21,79.0514
1429.27,79.0514
1432.34,79.0514
1435.4,79.0514
1438.47,79.0514
1441.53,79.0514
1444.6,79.0514
1447.66,79.0514
1450.73,79.0514
1453.79,79.0514
1456.85,79.0514
1459.92,79.0514
1462.98,79.0514
1466.05,79.0514
1469.11,79.0514
1472.18,79.0514
1475.24,79.0514
1478.31,79.0514
1481.37,79.0514
1484.44,79.0514
1487.5,79.0514
1490.56,79.0514
1493.63,79.0514
1496.69,79.0514
1499.76,79.0514
1502.82,79.0514
1505.89,79.0514
1508.95,79.0514
1512.02,79.0514
1515.08,79.0514
1518.15,79.0514
1521.21,79.0514
1524.27,79.0514
1527.34,79.0514
1530.4,79.0514
1533.47,79.0514
1536.53,79.0514
1539.6,79.0514
1542.66,79.0514
1545.73,79.0514
1548.79,79.0514
1551.85,316.206
1554.92,316.206
1557.98,316.206
1561.05,316.206
1564.11,316.206
1567.18,553.36
1570.24,553.36
1573.31,553.36
1576.37,553.36
1579.44,553.36
1582.5,553.36
1585.56,316.206
1588.63,316.206
1591.69,316.206
1594.76,316.206
1597.82,553.36
1600.89,553.36
1603.95,553.36
1607.02,553.36
1610.08,553.36
1613.15,553.36
1616.21,553.36
1619.27,316.206
1622.34,316.206
1625.4,79.0514
1628.47,79.0514
1631.53,79.0514
1634.6,79.0514
1637.66,79.0514
1640.73,79.0514
1643.79,79.0514
1646.85,79.0514
1649.92,79.0514
1652.98,79.0514
1656.05,79.0514
1659.11,79.0514
1662.18,79.0514
1665.24,79.0514
1668.31,79.0514
1671.37,79.0514
1674.44,79.0514
1677.5,79.0514
1680.56,79.0514
1683.63,79.0514
1686.69,79.0514
1689.76,79.0514
1692.82,79.0514
1695.89,79.0514
1698.95,79.0514
1702.02,79.0514
1705.08,79.0514
1708.15,79.0514
1711.21,79.0514
1714.27,79.0514
1717.34,79.0514
1720.4,79.0514
1723.47,79.0514
1726.53,79.0514
1729.6,79.0514
1732.66,79.0514
1735.73,79.0514
1738.79,79.0514
1741.85,79.0514
1744.92,79.0514
1747.98,79.0514
1751.05,79.0514
1754.11,79.0514
1757.18,79.0514
1760.24,79.0514
1763.31,79.0514
1766.37,79.0514
1769.44,79.0514
1772.5,79.0514
1775.56,79.0514
1778.63,79.0514
1781.69,79.0514
1784.76,79.0514
1787.82,79.0514
1790.89,79.0514
1793.95,79.0514
1797.02,79.0514
1800.08,79.0514
1803.15,79.0514
1806.21,79.0514
1809.27,79.0514
1812.34,79.0514
1815.4,79.0514
1818.47,79.0514
1821.53,79.0514
1824.6,79.0514
1827.66,79.0514
1830.73,79.0514
1833.79,79.0514
1836.85,79.0514
1839.92,79.0514
1842.98,79.0514
1846.05,79.0514
1849.11,79.0514
1852.18,79.0514
1855.24,79.0514
1858.31,79.0514
1861.37,79.0514
1864.44,79.0514
1867.5,79.0514
1870.56,79.0514
1873.63,79.0514
1876.69,79.0514
1879.76,79.0514
1882.82,79.0514
1885.89,79.0514
1888.95,79.0514
1892.02,79.0514
1895.08,79.0514
1898.15,79.0514
1901.21,79.0514
1904.27,79.0514
1907.34,79.0514
1910.4,79.0514
1913.47,79.0514
1916.53,79.0514
1919.6,79.0514
1922.66,79.0514
1925.73,79.0514
1928.79,79.0514
1931.85,79.0514
1934.92,79.0514
1937.98,79.0514
1941.05,79.0514
1944.11,79.0514
1947.18,79.0514
1950.24,79.0514
1953.31,79.0514
1956.37,79.0514
1959.44,79.0514
1962.5,316.206
1965.56,316.206
1968.63,316.206
1971.69,316.206
1974.76,316.206
1977.82,316.206
1980.89,316.206
1983.95,316.206
1987.02,316.206
1990.08,316.206
1993.15,316.206
1996.21,316.206
1999.27,316.206
2002.34,316.206
2005.4,316.206
2008.47,316.206
2011.53,316.206
2014.6,79.0514
2017.66,79.0514
2020.73,79.0514
2023.79,79.0514
2026.85,79.0514
2029.92,79.0514
2032.98,79.0514
2036.05,79.0514
2039.11,79.0514
2042.18,79.0514
2045.24,79.0514
2048.31,79.0514
2051.37,79.0514
2054.44,79.0514
2057.5,79.0514
2060.56,79.0514
2063.63,79.0514
2066.69,79.0514
2069.76,79.0514
2072.82,79.0514
2075.89,79.0514
2078.95,79.0514
2082.02,79.0514
2085.08,79.0514
2088.15,79.0514
2091.21,79.0514
2094.27,79.0514
2097.34,79.0514
2100.4,79.0514
2103.47,79.0514
2106.53,79.0514
2109.6,79.0514
2112.66,79.0514
2115.73,79.0514
2118.79,79.0514
2121.85,79.0514
2124.92,79.0514
2127.98,79.0514
2131.05,79.0514
2134.11,79.0514
2137.18,79.0514
2140.24,79.0514
2143.31,79.0514
2146.37,79.0514
2149.44,79.0514
2152.5,79.0514
2155.56,79.0514
2158.63,79.0514
2161.69,79.0514
2164.76,79.0514
2167.82,79.0514
2170.89,79.0514
2173.95,79.0514
2177.02,79.0514
2180.08,79.0514
2183.15,79.0514
2186.21,79.0514
2189.27,79.0514
2192.34,79.0514
2195.4,79.0514
2198.47,79.0514
2201.53,79.0514
2204.6,79.0514
2207.66,79.0514
2210.73,79.0514
2213.79,79.0514
2216.85,79.0514
2219.92,79.0514
2222.98,79.0514
2226.05,79.0514
2229.11,79.0514
2232.18,79.0514
2235.24,79.0514
2238.31,79.0514
2241.37,79.0514
2244.44,79.0514
2247.5,79.0514
2250.56,79.0514
2253.63,79.0514
2256.69,79.0514
2259.76,79.0514
2262.82,79.0514
2265.89,79.0514
2268.95,79.0514
2272.02,79.0514
2275.08,79.0514
2278.15,79.0514
2281.21,79.0514
2284.27,79.0514
2287.34,79.0514
2290.4,79.0514
2293.47,79.0514
