,GP550R
RamanShit,Intensity
261.755,197.628
264.815,197.628
267.874,197.628
270.934,197.628
273.994,197.628
277.053,197.628
280.113,197.628
283.172,355.731
286.232,355.731
289.291,355.731
292.351,513.834
295.411,513.834
298.47,513.834
301.53,513.834
304.589,355.731
307.649,355.731
310.709,355.731
313.768,197.628
316.828,197.628
319.887,39.5257
322.947,39.5257
326.006,39.5257
329.066,39.5257
332.126,39.5257
335.185,39.5257
338.245,197.628
341.304,197.628
344.364,197.628
347.424,355.731
350.483,355.731
353.543,513.834
356.602,513.834
359.662,513.834
362.721,513.834
365.781,513.834
368.841,671.937
371.9,671.937
374.96,671.937
378.019,513.834
381.079,513.834
384.138,513.834
387.198,513.834
390.258,513.834
393.317,513.834
396.377,513.834
399.436,513.834
402.496,355.731
405.556,355.731
408.615,355.731
411.675,355.731
414.734,197.628
417.794,197.628
420.853,39.5257
423.913,39.5257
426.973,39.5257
430.032,39.5257
433.092,39.5257
436.151,39.5257
439.211,39.5257
442.271,39.5257
445.33,39.5257
448.39,39.5257
451.449,197.628
454.509,355.731
457.568,513.834
460.628,988.142
463.688,1304.35
466.747,1620.55
469.807,1304.35
472.866,988.142
475.926,671.937
478.986,513.834
482.045,355.731
485.105,355.731
488.164,197.628
491.224,197.628
494.283,197.628
497.343,197.628
500.403,197.628
503.462,197.628
506.522,197.628
509.581,197.628
512.641,197.628
515.7,39.5257
518.76,39.5257
521.82,39.5257
524.879,39.5257
527.939,39.5257
530.998,39.5257
534.058,39.5257
537.118,39.5257
540.177,39.5257
543.237,39.5257
546.296,39.5257
549.356,39.5257
552.415,39.5257
555.475,39.5257
558.535,39.5257
561.594,39.5257
564.654,39.5257
567.713,39.5257
570.773,39.5257
573.833,39.5257
576.892,39.5257
579.952,39.5257
583.011,39.5257
586.071,39.5257
589.13,39.5257
592.19,39.5257
595.25,39.5257
598.309,39.5257
601.369,39.5257
604.428,39.5257
607.488,39.5257
610.548,39.5257
613.607,39.5257
616.667,39.5257
619.726,39.5257
622.786,39.5257
625.845,39.5257
628.905,39.5257
631.965,39.5257
635.024,39.5257
638.084,39.5257
641.143,39.5257
644.203,39.5257
647.262,39.5257
650.322,39.5257
653.382,39.5257
656.441,39.5257
659.501,39.5257
662.56,39.5257
665.62,39.5257
668.68,197.628
671.739,197.628
674.799,197.628
677.858,197.628
680.918,197.628
683.977,197.628
687.037,197.628
690.097,197.628
693.156,197.628
696.216,197.628
699.275,197.628
702.335,197.628
705.395,39.5257
708.454,39.5257
711.514,39.5257
714.573,39.5257
717.633,39.5257
720.692,39.5257
723.752,39.5257
726.812,39.5257
729.871,39.5257
732.931,39.5257
735.99,39.5257
739.05,39.5257
742.11,39.5257
745.169,39.5257
748.229,39.5257
751.288,39.5257
754.348,39.5257
757.407,39.5257
760.467,39.5257
763.527,39.5257
766.586,39.5257
769.646,39.5257
772.705,39.5257
775.765,39.5257
778.824,39.5257
781.884,39.5257
784.944,39.5257
788.003,39.5257
791.063,39.5257
794.122,39.5257
797.182,39.5257
800.242,39.5257
803.301,39.5257
806.361,39.5257
809.42,39.5257
812.48,39.5257
815.539,39.5257
818.599,39.5257
821.659,39.5257
824.718,39.5257
827.778,39.5257
830.837,39.5257
833.897,39.5257
836.957,39.5257
840.016,39.5257
843.076,39.5257
846.135,39.5257
849.195,39.5257
852.254,39.5257
855.314,39.5257
858.374,39.5257
861.433,39.5257
864.493,39.5257
867.552,39.5257
870.612,39.5257
873.671,39.5257
876.731,39.5257
879.791,39.5257
882.85,39.5257
885.91,39.5257
888.969,39.5257
892.029,39.5257
895.089,39.5257
898.148,39.5257
901.208,39.5257
904.267,39.5257
907.327,39.5257
910.386,39.5257
913.446,39.5257
916.506,39.5257
919.565,39.5257
922.625,39.5257
925.684,39.5257
928.744,39.5257
931.804,39.5257
934.863,39.5257
937.923,39.5257
940.982,39.5257
944.042,39.5257
947.101,39.5257
950.161,39.5257
953.221,39.5257
956.28,39.5257
959.34,39.5257
962.399,39.5257
965.459,39.5257
968.519,197.628
971.578,39.5257
974.638,39.5257
977.697,39.5257
980.757,39.5257
983.816,39.5257
986.876,39.5257
989.936,39.5257
992.995,39.5257
996.055,39.5257
999.114,39.5257
1002.17,39.5257
1005.23,39.5257
1008.29,39.5257
1011.35,39.5257
1014.41,39.5257
1017.47,39.5257
1020.53,39.5257
1023.59,39.5257
1026.65,39.5257
1029.71,39.5257
1032.77,39.5257
1035.83,39.5257
1038.89,39.5257
1041.95,39.5257
1045.01,39.5257
1048.07,39.5257
1051.13,197.628
1054.19,197.628
1057.25,355.731
1060.31,355.731
1063.37,513.834
1066.43,513.834
1069.48,671.937
1072.54,671.937
1075.6,671.937
1078.66,513.834
1081.72,355.731
1084.78,197.628
1087.84,197.628
1090.9,39.5257
1093.96,39.5257
1097.02,39.5257
1100.08,39.5257
1103.14,39.5257
1106.2,39.5257
1109.26,39.5257
1112.32,39.5257
1115.38,39.5257
1118.44,39.5257
1121.5,39.5257
1124.56,39.5257
1127.62,39.5257
1130.68,39.5257
1133.74,39.5257
1136.8,39.5257
1139.86,39.5257
1142.91,39.5257
1145.97,39.5257
1149.03,39.5257
1152.09,39.5257
1155.15,39.5257
1158.21,39.5257
1161.27,39.5257
1164.33,39.5257
1167.39,39.5257
1170.45,39.5257
1173.51,39.5257
1176.57,39.5257
1179.63,39.5257
1182.69,39.5257
1185.75,197.628
1188.81,513.834
1191.87,830.04
1194.93,1304.35
1197.99,1936.76
1201.05,2569.17
1204.11,3517.79
1207.17,4466.4
1210.23,5731.23
1213.29,7312.25
1216.34,9209.49
1219.4,11422.9
1222.46,13636.4
1225.52,15691.7
1228.58,17430.8
1231.64,16956.5
1234.7,16482.2
1237.76,15691.7
1240.82,13794.5
1243.88,12845.8
1246.94,12213.4
1250,13004
1253.06,14268.8
1256.12,17430.8
1259.18,21383.4
1262.24,23438.7
1265.3,25336
1268.36,23438.7
1271.42,22964.4
1274.48,20751
1277.54,16956.5
1280.6,13320.2
1283.66,10474.3
1286.71,8577.08
1289.77,6996.05
1292.83,6047.43
1295.89,5573.12
1298.95,5573.12
1302.01,5573.12
1305.07,5731.23
1308.13,5889.33
1311.19,5889.33
1314.25,5889.33
1317.31,5731.23
1320.37,5415.02
1323.43,4940.71
1326.49,4624.51
1329.55,4308.3
1332.61,3992.09
1335.67,3833.99
1338.73,3833.99
1341.79,3675.89
1344.85,3359.68
1347.91,2885.38
1350.97,2411.07
1354.03,1778.66
1357.09,1304.35
1360.14,830.04
1363.2,355.731
1366.26,197.628
1369.32,39.5257
1372.38,39.5257
1375.44,39.5257
1378.5,197.628
1381.56,355.731
1384.62,671.937
1387.68,988.142
1390.74,1620.55
1393.8,2252.96
1396.86,3043.48
1399.92,3992.09
1402.98,4940.71
1406.04,5889.33
1409.1,6837.94
1412.16,7628.46
1415.22,7944.66
1418.28,7944.66
1421.34,7944.66
1424.4,7786.56
1427.46,7786.56
1430.52,7628.46
1433.57,7154.15
1436.63,6047.43
1439.69,4624.51
1442.75,3201.58
1445.81,2094.86
1448.87,1462.45
1451.93,988.142
1454.99,671.937
1458.05,513.834
1461.11,197.628
1464.17,39.5257
1467.23,39.5257
1470.29,39.5257
1473.35,39.5257
1476.41,39.5257
1479.47,39.5257
1482.53,39.5257
1485.59,39.5257
1488.65,197.628
1491.71,355.731
1494.77,513.834
1497.83,671.937
1500.89,830.04
1503.95,988.142
1507,1146.25
1510.06,1304.35
1513.12,1462.45
1516.18,1620.55
1519.24,1620.55
1522.3,1620.55
1525.36,1620.55
1528.42,1620.55
1531.48,1462.45
1534.54,1462.45
1537.6,1304.35
1540.66,988.142
1543.72,830.04
1546.78,671.937
1549.84,513.834
1552.9,197.628
1555.96,197.628
1559.02,39.5257
1562.08,39.5257
1565.14,39.5257
1568.2,39.5257
1571.26,39.5257
1574.32,197.628
1577.38,197.628
1580.43,355.731
1583.49,355.731
1586.55,355.731
1589.61,355.731
1592.67,355.731
1595.73,355.731
1598.79,355.731
1601.85,355.731
1604.91,197.628
1607.97,197.628
1611.03,39.5257
1614.09,39.5257
1617.15,39.5257
1620.21,39.5257
1623.27,39.5257
1626.33,39.5257
1629.39,197.628
1632.45,355.731
1635.51,513.834
1638.57,671.937
1641.63,830.04
1644.69,988.142
1647.75,1304.35
1650.81,1620.55
1653.86,1936.76
1656.92,2569.17
1659.98,3201.58
1663.04,3833.99
1666.1,4466.4
1669.16,5415.02
1672.22,6205.53
1675.28,6679.84
1678.34,6996.05
1681.4,6996.05
1684.46,6996.05
1687.52,6837.94
1690.58,6521.74
1693.64,6047.43
1696.7,5731.23
1699.76,5415.02
1702.82,5098.81
1705.88,5098.81
1708.94,5098.81
1712,5098.81
1715.06,5098.81
1718.12,5098.81
1721.18,4940.71
1724.24,4624.51
1727.29,4308.3
1730.35,3833.99
1733.41,3201.58
1736.47,2885.38
1739.53,2569.17
1742.59,2252.96
1745.65,1936.76
1748.71,1778.66
1751.77,1620.55
1754.83,1462.45
1757.89,1304.35
1760.95,1304.35
1764.01,1304.35
1767.07,1146.25
1770.13,1146.25
1773.19,988.142
1776.25,988.142
1779.31,830.04
1782.37,830.04
1785.43,671.937
1788.49,513.834
1791.55,355.731
1794.61,197.628
1797.67,39.5257
1800.72,39.5257
1803.78,39.5257
1806.84,39.5257
1809.9,39.5257
1812.96,39.5257
1816.02,39.5257
1819.08,39.5257
1822.14,197.628
1825.2,355.731
1828.26,513.834
1831.32,671.937
1834.38,671.937
1837.44,830.04
1840.5,671.937
1843.56,671.937
1846.62,671.937
1849.68,671.937
1852.74,671.937
1855.8,671.937
1858.86,513.834
1861.92,513.834
1864.98,513.834
1868.04,355.731
1871.1,197.628
1874.15,197.628
1877.21,39.5257
1880.27,39.5257
1883.33,39.5257
1886.39,39.5257
1889.45,39.5257
1892.51,39.5257
1895.57,39.5257
1898.63,39.5257
1901.69,39.5257
1904.75,39.5257
1907.81,39.5257
1910.87,39.5257
1913.93,39.5257
1916.99,39.5257
1920.05,39.5257
1923.11,197.628
1926.17,197.628
1929.23,197.628
1932.29,355.731
1935.35,513.834
1938.41,513.834
1941.47,671.937
1944.52,830.04
1947.58,830.04
1950.64,988.142
1953.7,988.142
1956.76,988.142
1959.82,988.142
1962.88,988.142
1965.94,830.04
1969,830.04
1972.06,671.937
1975.12,513.834
1978.18,513.834
1981.24,513.834
1984.3,355.731
1987.36,355.731
1990.42,355.731
1993.48,513.834
1996.54,513.834
1999.6,513.834
2002.66,513.834
2005.72,513.834
2008.78,513.834
2011.84,513.834
2014.9,513.834
2017.95,513.834
2021.01,355.731
2024.07,355.731
2027.13,355.731
2030.19,197.628
2033.25,197.628
2036.31,197.628
2039.37,39.5257
2042.43,39.5257
2045.49,39.5257
2048.55,39.5257
2051.61,39.5257
2054.67,39.5257
2057.73,39.5257
2060.79,39.5257
2063.85,39.5257
2066.91,39.5257
2069.97,39.5257
2073.03,39.5257
2076.09,39.5257
2079.15,39.5257
2082.21,39.5257
2085.27,39.5257
2088.33,39.5257
2091.38,39.5257
2094.44,39.5257
2097.5,39.5257
2100.56,39.5257
2103.62,39.5257
2106.68,39.5257
2109.74,197.628
2112.8,197.628
2115.86,197.628
2118.92,197.628
2121.98,355.731
2125.04,355.731
2128.1,355.731
2131.16,513.834
2134.22,513.834
2137.28,671.937
2140.34,671.937
2143.4,671.937
2146.46,671.937
2149.52,671.937
2152.58,671.937
2155.64,671.937
2158.7,513.834
2161.76,513.834
2164.81,355.731
2167.87,355.731
2170.93,197.628
2173.99,197.628
2177.05,197.628
2180.11,39.5257
2183.17,39.5257
2186.23,39.5257
2189.29,39.5257
2192.35,39.5257
2195.41,39.5257
2198.47,39.5257
2201.53,39.5257
2204.59,39.5257
2207.65,39.5257
2210.71,39.5257
2213.77,39.5257
2216.83,39.5257
2219.89,39.5257
2222.95,39.5257
2226.01,39.5257
2229.07,39.5257
2232.13,39.5257
2235.19,39.5257
2238.24,39.5257
2241.3,39.5257
2244.36,39.5257
2247.42,39.5257
2250.48,39.5257
2253.54,39.5257
2256.6,39.5257
2259.66,39.5257
2262.72,39.5257
2265.78,39.5257
2268.84,39.5257
2271.9,39.5257
2274.96,39.5257
2278.02,39.5257
2281.08,39.5257
2284.14,39.5257
2287.2,39.5257
2290.26,39.5257
2293.32,39.5257
