,GP550R
RamanShit,Intensity
258.629,39.3701
261.694,39.3701
264.758,39.3701
267.823,39.3701
270.887,39.3701
273.952,39.3701
277.016,39.3701
280.081,39.3701
283.145,39.3701
286.21,39.3701
289.274,39.3701
292.339,275.591
295.403,275.591
298.468,275.591
301.532,511.811
304.597,511.811
307.661,511.811
310.726,511.811
313.79,511.811
316.855,511.811
319.919,275.591
322.984,275.591
326.048,39.3701
329.113,39.3701
332.177,39.3701
335.242,39.3701
338.306,39.3701
341.371,39.3701
344.435,39.3701
347.5,39.3701
350.565,39.3701
353.629,39.3701
356.694,39.3701
359.758,39.3701
362.823,39.3701
365.887,39.3701
368.952,39.3701
372.016,39.3701
375.081,39.3701
378.145,39.3701
381.21,39.3701
384.274,39.3701
387.339,39.3701
390.403,39.3701
393.468,275.591
396.532,511.811
399.597,748.031
402.661,1220.47
405.726,2401.57
408.79,3110.24
411.855,3818.9
414.919,3110.24
417.984,2401.57
421.048,1220.47
424.113,748.031
427.177,275.591
430.242,275.591
433.306,39.3701
436.371,39.3701
439.435,39.3701
442.5,39.3701
445.565,39.3701
448.629,39.3701
451.694,39.3701
454.758,39.3701
457.823,39.3701
460.887,39.3701
463.952,39.3701
467.016,275.591
470.081,275.591
473.145,511.811
476.21,748.031
479.274,1220.47
482.339,2165.35
485.403,3582.68
488.468,4291.34
491.532,5236.22
494.597,4291.34
497.661,3582.68
500.726,2401.57
503.79,1220.47
506.855,984.252
509.919,511.811
512.984,275.591
516.048,275.591
519.113,39.3701
522.177,39.3701
525.242,39.3701
528.306,39.3701
531.371,39.3701
534.435,39.3701
537.5,39.3701
540.565,39.3701
543.629,39.3701
546.694,39.3701
549.758,39.3701
552.823,39.3701
555.887,39.3701
558.952,275.591
562.016,275.591
565.081,275.591
568.145,275.591
571.21,275.591
574.274,275.591
577.339,275.591
580.403,275.591
583.468,275.591
586.532,275.591
589.597,275.591
592.661,511.811
595.726,511.811
598.79,511.811
601.855,748.031
604.919,984.252
607.984,1456.69
611.048,1692.91
614.113,2165.35
617.177,2165.35
620.242,2165.35
623.306,1929.13
626.371,1456.69
629.435,984.252
632.5,511.811
635.565,275.591
638.629,39.3701
641.694,39.3701
644.758,39.3701
647.823,39.3701
650.887,39.3701
653.952,39.3701
657.016,39.3701
660.081,275.591
663.145,511.811
666.21,984.252
669.274,1456.69
672.339,984.252
675.403,748.031
678.468,511.811
681.532,275.591
684.597,39.3701
687.661,39.3701
690.726,39.3701
693.79,39.3701
696.855,39.3701
699.919,39.3701
702.984,39.3701
706.048,39.3701
709.113,39.3701
712.177,39.3701
715.242,39.3701
718.306,39.3701
721.371,39.3701
724.435,39.3701
727.5,39.3701
730.565,39.3701
733.629,39.3701
736.694,39.3701
739.758,39.3701
742.823,39.3701
745.887,39.3701
748.952,39.3701
752.016,39.3701
755.081,39.3701
758.145,39.3701
761.21,39.3701
764.274,39.3701
767.339,39.3701
770.403,39.3701
773.468,39.3701
776.532,39.3701
779.597,39.3701
782.661,39.3701
785.726,39.3701
788.79,39.3701
791.855,39.3701
794.919,39.3701
797.984,39.3701
801.048,39.3701
804.113,39.3701
807.177,39.3701
810.242,39.3701
813.306,39.3701
816.371,39.3701
819.435,39.3701
822.5,39.3701
825.565,39.3701
828.629,39.3701
831.694,39.3701
834.758,39.3701
837.823,39.3701
840.887,39.3701
843.952,39.3701
847.016,39.3701
850.081,39.3701
853.145,39.3701
856.21,39.3701
859.274,39.3701
862.339,39.3701
865.403,39.3701
868.468,39.3701
871.532,39.3701
874.597,39.3701
877.661,39.3701
880.726,39.3701
883.79,39.3701
886.855,39.3701
889.919,39.3701
892.984,39.3701
896.048,39.3701
899.113,39.3701
902.177,39.3701
905.242,39.3701
908.306,39.3701
911.371,39.3701
914.435,39.3701
917.5,39.3701
920.565,39.3701
923.629,39.3701
926.694,39.3701
929.758,39.3701
932.823,39.3701
935.887,39.3701
938.952,39.3701
942.016,39.3701
945.081,39.3701
948.145,39.3701
951.21,39.3701
954.274,39.3701
957.339,39.3701
960.403,39.3701
963.468,39.3701
966.532,39.3701
969.597,39.3701
972.661,39.3701
975.726,275.591
978.79,275.591
981.855,275.591
984.919,511.811
987.984,984.252
991.048,1220.47
994.113,1692.91
997.177,2401.57
1000.24,4763.78
1003.31,11378
1006.37,16338.6
1009.44,30748
1012.5,16338.6
1015.56,13031.5
1018.63,6889.76
1021.69,2874.02
1024.76,1456.69
1027.82,984.252
1030.89,511.811
1033.95,275.591
1037.02,275.591
1040.08,39.3701
1043.15,39.3701
1046.21,39.3701
1049.27,39.3701
1052.34,39.3701
1055.4,39.3701
1058.47,39.3701
1061.53,39.3701
1064.6,39.3701
1067.66,39.3701
1070.73,39.3701
1073.79,39.3701
1076.85,39.3701
1079.92,39.3701
1082.98,39.3701
1086.05,39.3701
1089.11,39.3701
1092.18,39.3701
1095.24,39.3701
1098.31,39.3701
1101.37,275.591
1104.44,275.591
1107.5,511.811
1110.56,748.031
1113.63,984.252
1116.69,1220.47
1119.76,1456.69
1122.82,1456.69
1125.89,1692.91
1128.95,2165.35
1132.02,3582.68
1135.08,4291.34
1138.15,4763.78
1141.21,4055.12
1144.27,3582.68
1147.34,2401.57
1150.4,1456.69
1153.47,984.252
1156.53,511.811
1159.6,275.591
1162.66,39.3701
1165.73,39.3701
1168.79,39.3701
1171.85,39.3701
1174.92,39.3701
1177.98,39.3701
1181.05,39.3701
1184.11,39.3701
1187.18,39.3701
1190.24,39.3701
1193.31,39.3701
1196.37,39.3701
1199.44,39.3701
1202.5,39.3701
1205.56,39.3701
1208.63,39.3701
1211.69,39.3701
1214.76,39.3701
1217.82,39.3701
1220.89,39.3701
1223.95,39.3701
1227.02,39.3701
1230.08,39.3701
1233.15,39.3701
1236.21,39.3701
1239.27,39.3701
1242.34,39.3701
1245.4,39.3701
1248.47,39.3701
1251.53,39.3701
1254.6,39.3701
1257.66,39.3701
1260.73,39.3701
1263.79,39.3701
1266.85,39.3701
1269.92,39.3701
1272.98,39.3701
1276.05,39.3701
1279.11,39.3701
1282.18,39.3701
1285.24,39.3701
1288.31,39.3701
1291.37,39.3701
1294.44,39.3701
1297.5,39.3701
1300.56,39.3701
1303.63,39.3701
1306.69,39.3701
1309.76,39.3701
1312.82,39.3701
1315.89,39.3701
1318.95,39.3701
1322.02,39.3701
1325.08,39.3701
1328.15,39.3701
1331.21,39.3701
1334.27,39.3701
1337.34,39.3701
1340.4,39.3701
1343.47,39.3701
1346.53,39.3701
1349.6,39.3701
1352.66,39.3701
1355.73,39.3701
1358.79,39.3701
1361.85,39.3701
1364.92,39.3701
1367.98,39.3701
1371.05,39.3701
1374.11,39.3701
1377.18,39.3701
1380.24,39.3701
1383.31,39.3701
1386.37,39.3701
1389.44,39.3701
1392.5,39.3701
1395.56,39.3701
1398.63,39.3701
1401.69,39.3701
1404.76,39.3701
1407.82,39.3701
1410.89,39.3701
1413.95,39.3701
1417.02,39.3701
1420.08,39.3701
1423.15,39.3701
1426.21,39.3701
1429.27,39.3701
1432.34,39.3701
1435.4,39.3701
1438.47,39.3701
1441.53,39.3701
1444.6,39.3701
1447.66,39.3701
1450.73,39.3701
1453.79,39.3701
1456.85,39.3701
1459.92,39.3701
1462.98,39.3701
1466.05,39.3701
1469.11,39.3701
1472.18,39.3701
1475.24,39.3701
1478.31,39.3701
1481.37,39.3701
1484.44,39.3701
1487.5,39.3701
1490.56,39.3701
1493.63,39.3701
1496.69,39.3701
1499.76,39.3701
1502.82,39.3701
1505.89,39.3701
1508.95,39.3701
1512.02,39.3701
1515.08,39.3701
1518.15,39.3701
1521.21,39.3701
1524.27,39.3701
1527.34,39.3701
1530.4,39.3701
1533.47,39.3701
1536.53,39.3701
1539.6,39.3701
1542.66,39.3701
1545.73,39.3701
1548.79,39.3701
1551.85,39.3701
1554.92,39.3701
1557.98,39.3701
1561.05,39.3701
1564.11,39.3701
1567.18,39.3701
1570.24,39.3701
1573.31,39.3701
1576.37,39.3701
1579.44,39.3701
1582.5,39.3701
1585.56,39.3701
1588.63,39.3701
1591.69,39.3701
1594.76,39.3701
1597.82,39.3701
1600.89,39.3701
1603.95,39.3701
1607.02,39.3701
1610.08,39.3701
1613.15,39.3701
1616.21,39.3701
1619.27,39.3701
1622.34,39.3701
1625.4,39.3701
1628.47,39.3701
1631.53,39.3701
1634.6,39.3701
1637.66,39.3701
1640.73,39.3701
1643.79,39.3701
1646.85,39.3701
1649.92,39.3701
1652.98,39.3701
1656.05,39.3701
1659.11,39.3701
1662.18,39.3701
1665.24,39.3701
1668.31,39.3701
1671.37,39.3701
1674.44,39.3701
1677.5,39.3701
1680.56,39.3701
1683.63,39.3701
1686.69,39.3701
1689.76,39.3701
1692.82,39.3701
1695.89,39.3701
1698.95,39.3701
1702.02,39.3701
1705.08,39.3701
1708.15,39.3701
1711.21,39.3701
1714.27,39.3701
1717.34,39.3701
1720.4,39.3701
1723.47,39.3701
1726.53,39.3701
1729.6,39.3701
1732.66,39.3701
1735.73,39.3701
1738.79,39.3701
1741.85,39.3701
1744.92,39.3701
1747.98,39.3701
1751.05,39.3701
1754.11,39.3701
1757.18,39.3701
1760.24,39.3701
1763.31,39.3701
1766.37,39.3701
1769.44,39.3701
1772.5,39.3701
1775.56,39.3701
1778.63,39.3701
1781.69,39.3701
1784.76,39.3701
1787.82,39.3701
1790.89,39.3701
1793.95,39.3701
1797.02,39.3701
1800.08,39.3701
1803.15,39.3701
1806.21,39.3701
1809.27,39.3701
1812.34,39.3701
1815.4,39.3701
1818.47,39.3701
1821.53,39.3701
1824.6,39.3701
1827.66,39.3701
1830.73,39.3701
1833.79,39.3701
1836.85,39.3701
1839.92,39.3701
1842.98,39.3701
1846.05,39.3701
1849.11,39.3701
1852.18,39.3701
1855.24,39.3701
1858.31,39.3701
1861.37,39.3701
1864.44,39.3701
1867.5,39.3701
1870.56,39.3701
1873.63,39.3701
1876.69,39.3701
1879.76,39.3701
1882.82,39.3701
1885.89,39.3701
1888.95,39.3701
1892.02,39.3701
1895.08,39.3701
1898.15,39.3701
1901.21,39.3701
1904.27,39.3701
1907.34,39.3701
1910.4,39.3701
1913.47,39.3701
1916.53,39.3701
1919.6,39.3701
1922.66,39.3701
1925.73,39.3701
1928.79,39.3701
1931.85,39.3701
1934.92,39.3701
1937.98,39.3701
1941.05,39.3701
1944.11,39.3701
1947.18,39.3701
1950.24,39.3701
1953.31,39.3701
1956.37,39.3701
1959.44,39.3701
1962.5,39.3701
1965.56,39.3701
1968.63,39.3701
1971.69,39.3701
1974.76,39.3701
1977.82,39.3701
1980.89,39.3701
1983.95,39.3701
1987.02,39.3701
1990.08,39.3701
1993.15,39.3701
1996.21,39.3701
1999.27,39.3701
2002.34,39.3701
2005.4,39.3701
2008.47,39.3701
2011.53,39.3701
2014.6,39.3701
2017.66,39.3701
2020.73,39.3701
2023.79,39.3701
2026.85,39.3701
2029.92,39.3701
2032.98,39.3701
2036.05,39.3701
2039.11,39.3701
2042.18,39.3701
2045.24,39.3701
2048.31,39.3701
2051.37,39.3701
2054.44,39.3701
2057.5,39.3701
2060.56,39.3701
2063.63,39.3701
2066.69,39.3701
2069.76,39.3701
2072.82,39.3701
2075.89,39.3701
2078.95,39.3701
2082.02,39.3701
2085.08,39.3701
2088.15,39.3701
2091.21,39.3701
2094.27,39.3701
2097.34,39.3701
2100.4,39.3701
2103.47,39.3701
2106.53,39.3701
2109.6,39.3701
2112.66,39.3701
2115.73,39.3701
2118.79,39.3701
2121.85,39.3701
2124.92,39.3701
2127.98,39.3701
2131.05,39.3701
2134.11,39.3701
2137.18,39.3701
2140.24,39.3701
2143.31,39.3701
2146.37,39.3701
2149.44,39.3701
2152.5,39.3701
2155.56,39.3701
2158.63,39.3701
2161.69,39.3701
2164.76,39.3701
2167.82,39.3701
2170.89,39.3701
2173.95,39.3701
2177.02,39.3701
2180.08,39.3701
2183.15,39.3701
2186.21,39.3701
2189.27,39.3701
2192.34,39.3701
2195.4,39.3701
2198.47,39.3701
2201.53,39.3701
2204.6,39.3701
2207.66,39.3701
2210.73,39.3701
2213.79,39.3701
2216.85,39.3701
2219.92,39.3701
2222.98,39.3701
2226.05,39.3701
2229.11,39.3701
2232.18,39.3701
2235.24,39.3701
2238.31,39.3701
2241.37,39.3701
2244.44,39.3701
2247.5,39.3701
2250.56,39.3701
2253.63,39.3701
2256.69,39.3701
2259.76,39.3701
2262.82,39.3701
2265.89,39.3701
2268.95,39.3701
2272.02,39.3701
2275.08,39.3701
2278.15,39.3701
2281.21,39.3701
2284.27,39.3701
2287.34,39.3701
2290.4,39.3701
2293.47,39.3701
