,GP550R
RamanShit,Intensity
264.871,59.0551
267.926,59.0551
270.981,59.0551
274.035,59.0551
277.09,59.0551
280.145,334.646
283.199,334.646
286.254,334.646
289.309,334.646
292.363,334.646
295.418,334.646
298.473,334.646
301.527,334.646
304.582,334.646
307.637,334.646
310.691,334.646
313.746,610.236
316.801,610.236
319.855,334.646
322.91,334.646
325.965,334.646
329.019,334.646
332.074,334.646
335.129,334.646
338.183,334.646
341.238,334.646
344.293,334.646
347.347,334.646
350.402,334.646
353.457,334.646
356.511,334.646
359.566,59.0551
362.621,59.0551
365.675,59.0551
368.73,59.0551
371.785,59.0551
374.839,59.0551
377.894,334.646
380.949,334.646
384.003,334.646
387.058,334.646
390.113,334.646
393.167,334.646
396.222,334.646
399.277,610.236
402.331,885.827
405.386,1437.01
408.441,2539.37
411.495,3090.55
414.55,3641.73
417.605,2814.96
420.659,2539.37
423.714,1437.01
426.768,885.827
429.823,610.236
432.878,334.646
435.932,334.646
438.987,334.646
442.042,334.646
445.096,334.646
448.151,334.646
451.206,334.646
454.26,334.646
457.315,334.646
460.37,334.646
463.424,334.646
466.479,334.646
469.534,334.646
472.588,610.236
475.643,610.236
478.698,885.827
481.752,1437.01
484.807,2539.37
487.862,3917.32
490.916,4744.09
493.971,5846.46
497.026,4744.09
500.08,4192.91
503.135,2814.96
506.19,1712.6
509.244,1161.42
512.299,885.827
515.354,610.236
518.408,610.236
521.463,334.646
524.518,334.646
527.572,334.646
530.627,334.646
533.682,334.646
536.736,334.646
539.791,334.646
542.846,334.646
545.9,334.646
548.955,334.646
552.01,334.646
555.064,334.646
558.119,334.646
561.174,334.646
564.228,334.646
567.283,334.646
570.338,334.646
573.392,334.646
576.447,334.646
579.502,334.646
582.556,610.236
585.611,610.236
588.666,610.236
591.72,610.236
594.775,610.236
597.83,610.236
600.884,885.827
603.939,885.827
606.994,885.827
610.048,1161.42
613.103,1437.01
616.158,1437.01
619.212,1712.6
622.267,1712.6
625.322,1437.01
628.376,1437.01
631.431,1161.42
634.486,610.236
637.54,334.646
640.595,334.646
643.65,334.646
646.704,334.646
649.759,59.0551
652.814,59.0551
655.868,59.0551
658.923,59.0551
661.977,334.646
665.032,334.646
668.087,334.646
671.141,334.646
674.196,334.646
677.251,334.646
680.305,334.646
683.36,334.646
686.415,334.646
689.469,334.646
692.524,334.646
695.579,334.646
698.633,59.0551
701.688,59.0551
704.743,59.0551
707.797,59.0551
710.852,59.0551
713.907,59.0551
716.961,59.0551
720.016,59.0551
723.071,59.0551
726.125,59.0551
729.18,59.0551
732.235,59.0551
735.289,59.0551
738.344,59.0551
741.399,59.0551
744.453,59.0551
747.508,59.0551
750.563,59.0551
753.617,59.0551
756.672,59.0551
759.727,59.0551
762.781,59.0551
765.836,59.0551
768.891,59.0551
771.945,59.0551
775,59.0551
778.055,59.0551
781.109,59.0551
784.164,59.0551
787.219,59.0551
790.273,59.0551
793.328,59.0551
796.383,59.0551
799.437,59.0551
802.492,59.0551
805.547,59.0551
808.601,334.646
811.656,334.646
814.711,334.646
817.765,334.646
820.82,334.646
823.875,334.646
826.929,334.646
829.984,334.646
833.039,334.646
836.093,334.646
839.148,334.646
842.203,334.646
845.257,334.646
848.312,334.646
851.367,334.646
854.421,59.0551
857.476,59.0551
860.531,59.0551
863.585,59.0551
866.64,334.646
869.695,334.646
872.749,334.646
875.804,334.646
878.859,59.0551
881.913,59.0551
884.968,59.0551
888.023,59.0551
891.077,59.0551
894.132,59.0551
897.186,59.0551
900.241,59.0551
903.296,59.0551
906.35,59.0551
909.405,59.0551
912.46,59.0551
915.514,59.0551
918.569,59.0551
921.624,59.0551
924.678,59.0551
927.733,59.0551
930.788,59.0551
933.842,59.0551
936.897,59.0551
939.952,59.0551
943.006,334.646
946.061,334.646
949.116,334.646
952.17,334.646
955.225,334.646
958.28,334.646
961.334,334.646
964.389,334.646
967.444,334.646
970.498,334.646
973.553,334.646
976.608,334.646
979.662,334.646
982.717,610.236
985.772,610.236
988.826,885.827
991.881,1161.42
994.936,1712.6
997.99,1988.19
1001.05,3090.55
1004.1,6397.64
1007.15,11082.7
1010.21,45255.9
1013.26,53523.6
1016.32,13011.8
1019.37,8877.95
1022.43,3641.73
1025.48,1988.19
1028.54,1437.01
1031.59,885.827
1034.65,610.236
1037.7,610.236
1040.76,334.646
1043.81,334.646
1046.86,334.646
1049.92,334.646
1052.97,334.646
1056.03,334.646
1059.08,334.646
1062.14,59.0551
1065.19,59.0551
1068.25,59.0551
1071.3,59.0551
1074.36,59.0551
1077.41,59.0551
1080.47,59.0551
1083.52,59.0551
1086.58,59.0551
1089.63,59.0551
1092.68,59.0551
1095.74,334.646
1098.79,334.646
1101.85,334.646
1104.9,334.646
1107.96,334.646
1111.01,334.646
1114.07,334.646
1117.12,334.646
1120.18,334.646
1123.23,334.646
1126.29,334.646
1129.34,610.236
1132.4,885.827
1135.45,1161.42
1138.5,1712.6
1141.56,2263.78
1144.61,2539.37
1147.67,2263.78
1150.72,1988.19
1153.78,1437.01
1156.83,885.827
1159.89,610.236
1162.94,334.646
1166,334.646
1169.05,334.646
1172.11,334.646
1175.16,334.646
1178.22,334.646
1181.27,334.646
1184.32,334.646
1187.38,59.0551
1190.43,59.0551
1193.49,59.0551
1196.54,59.0551
1199.6,59.0551
1202.65,59.0551
1205.71,59.0551
1208.76,59.0551
1211.82,59.0551
1214.87,59.0551
1217.93,59.0551
1220.98,59.0551
1224.04,59.0551
1227.09,59.0551
1230.14,59.0551
1233.2,59.0551
1236.25,59.0551
1239.31,59.0551
1242.36,59.0551
1245.42,59.0551
1248.47,59.0551
1251.53,59.0551
1254.58,59.0551
1257.64,59.0551
1260.69,59.0551
1263.75,59.0551
1266.8,59.0551
1269.86,59.0551
1272.91,59.0551
1275.96,59.0551
1279.02,59.0551
1282.07,59.0551
1285.13,59.0551
1288.18,59.0551
1291.24,59.0551
1294.29,59.0551
1297.35,59.0551
1300.4,59.0551
1303.46,59.0551
1306.51,59.0551
1309.57,59.0551
1312.62,59.0551
1315.68,59.0551
1318.73,59.0551
1321.78,334.646
1324.84,334.646
1327.89,334.646
1330.95,334.646
1334,334.646
1337.06,334.646
1340.11,334.646
1343.17,334.646
1346.22,334.646
1349.28,334.646
1352.33,334.646
1355.39,334.646
1358.44,334.646
1361.5,334.646
1364.55,334.646
1367.6,334.646
1370.66,334.646
1373.71,334.646
1376.77,59.0551
1379.82,59.0551
1382.88,59.0551
1385.93,59.0551
1388.99,59.0551
1392.04,59.0551
1395.1,334.646
1398.15,334.646
1401.21,59.0551
1404.26,59.0551
1407.32,59.0551
1410.37,59.0551
1413.42,59.0551
1416.48,59.0551
1419.53,59.0551
1422.59,59.0551
1425.64,59.0551
1428.7,59.0551
1431.75,59.0551
1434.81,59.0551
1437.86,59.0551
1440.92,59.0551
1443.97,59.0551
1447.03,59.0551
1450.08,334.646
1453.14,334.646
1456.19,59.0551
1459.24,59.0551
1462.3,59.0551
1465.35,59.0551
1468.41,59.0551
1471.46,59.0551
1474.52,59.0551
1477.57,59.0551
1480.63,59.0551
1483.68,59.0551
1486.74,59.0551
1489.79,59.0551
1492.85,59.0551
1495.9,334.646
1498.95,334.646
1502.01,334.646
1505.06,334.646
1508.12,334.646
1511.17,334.646
1514.23,334.646
1517.28,334.646
1520.34,334.646
1523.39,334.646
1526.45,334.646
1529.5,334.646
1532.56,334.646
1535.61,334.646
1538.67,334.646
1541.72,334.646
1544.77,334.646
1547.83,334.646
1550.88,334.646
1553.94,334.646
1556.99,334.646
1560.05,334.646
1563.1,334.646
1566.16,334.646
1569.21,334.646
1572.27,334.646
1575.32,59.0551
1578.38,59.0551
1581.43,59.0551
1584.49,59.0551
1587.54,59.0551
1590.59,59.0551
1593.65,59.0551
1596.7,59.0551
1599.76,59.0551
1602.81,334.646
1605.87,334.646
1608.92,334.646
1611.98,334.646
1615.03,334.646
1618.09,334.646
1621.14,334.646
1624.2,334.646
1627.25,334.646
1630.31,334.646
1633.36,334.646
1636.41,334.646
1639.47,334.646
1642.52,334.646
1645.58,334.646
1648.63,334.646
1651.69,334.646
1654.74,334.646
1657.8,334.646
1660.85,59.0551
1663.91,59.0551
1666.96,59.0551
1670.02,59.0551
1673.07,59.0551
1676.13,59.0551
1679.18,59.0551
1682.23,59.0551
1685.29,59.0551
1688.34,59.0551
1691.4,334.646
1694.45,334.646
1697.51,334.646
1700.56,334.646
1703.62,334.646
1706.67,334.646
1709.73,334.646
1712.78,334.646
1715.84,334.646
1718.89,334.646
1721.95,334.646
1725,334.646
1728.05,334.646
1731.11,334.646
1734.16,334.646
1737.22,334.646
1740.27,334.646
1743.33,334.646
1746.38,334.646
1749.44,59.0551
1752.49,59.0551
1755.55,59.0551
1758.6,59.0551
1761.66,59.0551
1764.71,334.646
1767.77,334.646
1770.82,334.646
1773.87,334.646
1776.93,334.646
1779.98,334.646
1783.04,334.646
1786.09,334.646
1789.15,334.646
1792.2,59.0551
1795.26,59.0551
1798.31,59.0551
1801.37,59.0551
1804.42,59.0551
1807.48,59.0551
1810.53,334.646
1813.59,334.646
1816.64,334.646
1819.69,334.646
1822.75,334.646
1825.8,59.0551
1828.86,59.0551
1831.91,59.0551
1834.97,59.0551
1838.02,59.0551
1841.08,59.0551
1844.13,59.0551
1847.19,59.0551
1850.24,59.0551
1853.3,59.0551
1856.35,59.0551
1859.41,59.0551
1862.46,59.0551
1865.51,59.0551
1868.57,59.0551
1871.62,59.0551
1874.68,59.0551
1877.73,59.0551
1880.79,59.0551
1883.84,59.0551
1886.9,59.0551
1889.95,59.0551
1893.01,59.0551
1896.06,59.0551
1899.12,59.0551
1902.17,59.0551
1905.23,59.0551
1908.28,59.0551
1911.33,59.0551
1914.39,59.0551
1917.44,59.0551
1920.5,59.0551
1923.55,59.0551
1926.61,59.0551
1929.66,59.0551
1932.72,59.0551
1935.77,334.646
1938.83,334.646
1941.88,334.646
1944.94,59.0551
1947.99,59.0551
1951.05,59.0551
1954.1,334.646
1957.15,334.646
1960.21,334.646
1963.26,334.646
1966.32,334.646
1969.37,59.0551
1972.43,59.0551
1975.48,59.0551
1978.54,59.0551
1981.59,59.0551
1984.65,59.0551
1987.7,59.0551
1990.76,59.0551
1993.81,59.0551
1996.86,59.0551
1999.92,59.0551
2002.97,59.0551
2006.03,59.0551
2009.08,59.0551
2012.14,59.0551
2015.19,59.0551
2018.25,59.0551
2021.3,59.0551
2024.36,59.0551
2027.41,59.0551
2030.47,59.0551
2033.52,59.0551
2036.58,59.0551
2039.63,59.0551
2042.68,59.0551
2045.74,59.0551
2048.79,59.0551
2051.85,59.0551
2054.9,59.0551
2057.96,334.646
2061.01,334.646
2064.07,334.646
2067.12,59.0551
2070.18,59.0551
2073.23,59.0551
2076.29,59.0551
2079.34,59.0551
2082.4,59.0551
2085.45,334.646
2088.5,334.646
2091.56,59.0551
2094.61,59.0551
2097.67,59.0551
2100.72,59.0551
2103.78,59.0551
2106.83,59.0551
2109.89,59.0551
2112.94,59.0551
2116,59.0551
2119.05,59.0551
2122.11,59.0551
2125.16,59.0551
2128.22,59.0551
2131.27,59.0551
2134.32,59.0551
2137.38,59.0551
2140.43,59.0551
2143.49,59.0551
2146.54,59.0551
2149.6,59.0551
2152.65,59.0551
2155.71,59.0551
2158.76,59.0551
2161.82,59.0551
2164.87,59.0551
2167.93,59.0551
2170.98,59.0551
2174.04,334.646
2177.09,334.646
2180.14,334.646
2183.2,334.646
2186.25,334.646
2189.31,334.646
2192.36,334.646
2195.42,334.646
2198.47,334.646
2201.53,334.646
2204.58,334.646
2207.64,334.646
2210.69,334.646
2213.75,334.646
2216.8,334.646
2219.86,334.646
2222.91,334.646
2225.96,334.646
2229.02,334.646
2232.07,334.646
2235.13,334.646
2238.18,334.646
2241.24,334.646
2244.29,334.646
2247.35,334.646
2250.4,334.646
2253.46,334.646
2256.51,334.646
2259.57,334.646
2262.62,334.646
2265.68,334.646
2268.73,334.646
2271.78,334.646
2274.84,59.0551
2277.89,59.0551
2280.95,59.0551
2284,59.0551
2287.06,59.0551
2290.11,59.0551
