,GP550R
RamanShit,Intensity
258.696,553.36
261.755,1027.67
264.815,1027.67
267.874,1027.67
270.934,1027.67
273.994,1264.82
277.053,1264.82
280.113,1264.82
283.172,1027.67
286.232,1027.67
289.291,790.514
292.351,316.206
295.411,79.0514
298.47,79.0514
301.53,79.0514
304.589,79.0514
307.649,79.0514
310.709,316.206
313.768,553.36
316.828,1501.98
319.887,3636.36
322.947,6245.06
326.006,10513.8
329.066,10988.1
332.126,7193.68
335.185,5770.75
338.245,3162.06
341.304,1739.13
344.364,790.514
347.424,553.36
350.483,316.206
353.543,316.206
356.602,316.206
359.662,316.206
362.721,316.206
365.781,316.206
368.841,553.36
371.9,790.514
374.96,1027.67
378.019,1501.98
381.079,1976.28
384.138,2450.59
387.198,3162.06
390.258,4110.67
393.317,4822.13
396.377,5533.6
399.436,5533.6
402.496,5533.6
405.556,5296.44
408.615,5059.29
411.675,4110.67
414.734,3399.21
417.794,2924.9
420.853,2450.59
423.913,2450.59
426.973,2450.59
430.032,2687.75
433.092,3162.06
436.151,4822.13
439.211,7430.83
442.271,11225.3
445.33,14545.5
448.39,20237.2
451.449,20948.6
454.509,15256.9
457.568,12648.2
460.628,7430.83
463.688,3873.52
466.747,2450.59
469.807,1501.98
472.866,1027.67
475.926,553.36
478.986,316.206
482.045,316.206
485.105,316.206
488.164,79.0514
491.224,79.0514
494.283,79.0514
497.343,79.0514
500.403,79.0514
503.462,79.0514
506.522,79.0514
509.581,79.0514
512.641,79.0514
515.7,79.0514
518.76,79.0514
521.82,79.0514
524.879,79.0514
527.939,79.0514
530.998,79.0514
534.058,79.0514
537.118,79.0514
540.177,79.0514
543.237,316.206
546.296,553.36
549.356,1264.82
552.415,1739.13
555.475,1739.13
558.535,1739.13
561.594,1501.98
564.654,1264.82
567.713,1027.67
570.773,790.514
573.833,790.514
576.892,790.514
579.952,553.36
583.011,553.36
586.071,316.206
589.13,79.0514
592.19,79.0514
595.25,79.0514
598.309,316.206
601.369,316.206
604.428,316.206
607.488,553.36
610.548,553.36
613.607,553.36
616.667,553.36
619.726,553.36
622.786,553.36
625.845,316.206
628.905,316.206
631.965,316.206
635.024,316.206
638.084,316.206
641.143,553.36
644.203,790.514
647.262,1027.67
650.322,1264.82
653.382,1501.98
656.441,1976.28
659.501,3162.06
662.56,5059.29
665.62,8142.29
668.68,12648.2
671.739,15256.9
674.799,18577.1
677.858,15256.9
680.918,14071.1
683.977,10513.8
687.037,6719.37
690.097,4347.83
693.156,2924.9
696.216,1976.28
699.275,1264.82
702.335,1027.67
705.395,790.514
708.454,553.36
711.514,553.36
714.573,316.206
717.633,316.206
720.692,79.0514
723.752,79.0514
726.812,79.0514
729.871,79.0514
732.931,79.0514
735.99,79.0514
739.05,79.0514
742.11,79.0514
745.169,79.0514
748.229,79.0514
751.288,79.0514
754.348,79.0514
757.407,79.0514
760.467,79.0514
763.527,79.0514
766.586,316.206
769.646,316.206
772.705,316.206
775.765,316.206
778.824,316.206
781.884,316.206
784.944,316.206
788.003,316.206
791.063,316.206
794.122,316.206
797.182,79.0514
800.242,79.0514
803.301,79.0514
806.361,79.0514
809.42,79.0514
812.48,79.0514
815.539,79.0514
818.599,79.0514
821.659,79.0514
824.718,79.0514
827.778,79.0514
830.837,79.0514
833.897,79.0514
836.957,79.0514
840.016,79.0514
843.076,79.0514
846.135,79.0514
849.195,79.0514
852.254,79.0514
855.314,79.0514
858.374,79.0514
861.433,316.206
864.493,79.0514
867.552,79.0514
870.612,79.0514
873.671,79.0514
876.731,79.0514
879.791,79.0514
882.85,79.0514
885.91,79.0514
888.969,79.0514
892.029,316.206
895.089,553.36
898.148,790.514
901.208,1027.67
904.267,1501.98
907.327,2213.44
910.386,3162.06
913.446,4584.98
916.506,7193.68
919.565,11699.6
922.625,19288.5
925.684,29249
928.744,34940.7
931.804,41343.9
934.863,34940.7
937.923,28300.4
940.982,16917
944.042,8853.75
947.101,4584.98
950.161,2924.9
953.221,1739.13
956.28,1264.82
959.34,1027.67
962.399,790.514
965.459,790.514
968.519,790.514
971.578,1027.67
974.638,1027.67
977.697,1264.82
980.757,1739.13
983.816,1976.28
986.876,2213.44
989.936,2213.44
992.995,1976.28
996.055,1976.28
999.114,1501.98
1002.17,1027.67
1005.23,790.514
1008.29,553.36
1011.35,553.36
1014.41,553.36
1017.47,316.206
1020.53,316.206
1023.59,316.206
1026.65,316.206
1029.71,316.206
1032.77,316.206
1035.83,79.0514
1038.89,79.0514
1041.95,79.0514
1045.01,316.206
1048.07,316.206
1051.13,553.36
1054.19,553.36
1057.25,316.206
1060.31,316.206
1063.37,316.206
1066.43,316.206
1069.48,316.206
1072.54,316.206
1075.6,316.206
1078.66,316.206
1081.72,553.36
1084.78,553.36
1087.84,316.206
1090.9,316.206
1093.96,316.206
1097.02,316.206
1100.08,316.206
1103.14,316.206
1106.2,316.206
1109.26,79.0514
1112.32,79.0514
1115.38,79.0514
1118.44,79.0514
1121.5,79.0514
1124.56,316.206
1127.62,316.206
1130.68,316.206
1133.74,316.206
1136.8,316.206
1139.86,316.206
1142.91,316.206
1145.97,316.206
1149.03,316.206
1152.09,316.206
1155.15,316.206
1158.21,316.206
1161.27,316.206
1164.33,316.206
1167.39,316.206
1170.45,316.206
1173.51,316.206
1176.57,316.206
1179.63,316.206
1182.69,316.206
1185.75,553.36
1188.81,553.36
1191.87,553.36
1194.93,316.206
1197.99,316.206
1201.05,316.206
1204.11,316.206
1207.17,316.206
1210.23,553.36
1213.29,553.36
1216.34,553.36
1219.4,553.36
1222.46,553.36
1225.52,553.36
1228.58,316.206
1231.64,316.206
1234.7,316.206
1237.76,79.0514
1240.82,79.0514
1243.88,79.0514
1246.94,79.0514
1250,79.0514
1253.06,79.0514
1256.12,79.0514
1259.18,79.0514
1262.24,79.0514
1265.3,79.0514
1268.36,79.0514
1271.42,79.0514
1274.48,79.0514
1277.54,79.0514
1280.6,79.0514
1283.66,79.0514
1286.71,79.0514
1289.77,79.0514
1292.83,79.0514
1295.89,79.0514
1298.95,79.0514
1302.01,79.0514
1305.07,79.0514
1308.13,79.0514
1311.19,79.0514
1314.25,79.0514
1317.31,79.0514
1320.37,79.0514
1323.43,79.0514
1326.49,79.0514
1329.55,79.0514
1332.61,79.0514
1335.67,79.0514
1338.73,79.0514
1341.79,79.0514
1344.85,79.0514
1347.91,79.0514
1350.97,79.0514
1354.03,79.0514
1357.09,316.206
1360.14,316.206
1363.2,316.206
1366.26,316.206
1369.32,316.206
1372.38,316.206
1375.44,316.206
1378.5,316.206
1381.56,316.206
1384.62,316.206
1387.68,79.0514
1390.74,79.0514
1393.8,79.0514
1396.86,79.0514
1399.92,79.0514
1402.98,79.0514
1406.04,79.0514
1409.1,79.0514
1412.16,79.0514
1415.22,79.0514
1418.28,79.0514
1421.34,79.0514
1424.4,79.0514
1427.46,79.0514
1430.52,79.0514
1433.57,79.0514
1436.63,79.0514
1439.69,79.0514
1442.75,79.0514
1445.81,79.0514
1448.87,79.0514
1451.93,79.0514
1454.99,79.0514
1458.05,79.0514
1461.11,79.0514
1464.17,79.0514
1467.23,79.0514
1470.29,79.0514
1473.35,79.0514
1476.41,79.0514
1479.47,79.0514
1482.53,79.0514
1485.59,79.0514
1488.65,79.0514
1491.71,79.0514
1494.77,79.0514
1497.83,79.0514
1500.89,79.0514
1503.95,79.0514
1507,79.0514
1510.06,79.0514
1513.12,316.206
1516.18,316.206
1519.24,316.206
1522.3,316.206
1525.36,316.206
1528.42,316.206
1531.48,316.206
1534.54,316.206
1537.6,316.206
1540.66,316.206
1543.72,316.206
1546.78,316.206
1549.84,316.206
1552.9,316.206
1555.96,316.206
1559.02,553.36
1562.08,316.206
1565.14,316.206
1568.2,316.206
1571.26,316.206
1574.32,316.206
1577.38,316.206
1580.43,316.206
1583.49,316.206
1586.55,316.206
1589.61,316.206
1592.67,316.206
1595.73,316.206
1598.79,316.206
1601.85,316.206
1604.91,316.206
1607.97,316.206
1611.03,316.206
1614.09,316.206
1617.15,316.206
1620.21,316.206
1623.27,316.206
1626.33,316.206
1629.39,553.36
1632.45,553.36
1635.51,790.514
1638.57,790.514
1641.63,790.514
1644.69,553.36
1647.75,553.36
1650.81,316.206
1653.86,316.206
1656.92,316.206
1659.98,316.206
1663.04,316.206
1666.1,316.206
1669.16,316.206
1672.22,316.206
1675.28,316.206
1678.34,553.36
1681.4,553.36
1684.46,553.36
1687.52,553.36
1690.58,553.36
1693.64,553.36
1696.7,553.36
1699.76,553.36
1702.82,553.36
1705.88,553.36
1708.94,553.36
1712,316.206
1715.06,316.206
1718.12,316.206
1721.18,316.206
1724.24,316.206
1727.29,316.206
1730.35,316.206
1733.41,316.206
1736.47,316.206
1739.53,79.0514
1742.59,79.0514
1745.65,79.0514
1748.71,79.0514
1751.77,79.0514
1754.83,79.0514
1757.89,79.0514
1760.95,79.0514
1764.01,316.206
1767.07,316.206
1770.13,316.206
1773.19,316.206
1776.25,316.206
1779.31,316.206
1782.37,316.206
1785.43,316.206
1788.49,316.206
1791.55,79.0514
1794.61,79.0514
1797.67,79.0514
1800.72,79.0514
1803.78,316.206
1806.84,316.206
1809.9,316.206
1812.96,316.206
1816.02,316.206
1819.08,316.206
1822.14,79.0514
1825.2,79.0514
1828.26,79.0514
1831.32,79.0514
1834.38,316.206
1837.44,316.206
1840.5,316.206
1843.56,316.206
1846.62,316.206
1849.68,316.206
1852.74,316.206
1855.8,316.206
1858.86,316.206
1861.92,316.206
1864.98,316.206
1868.04,553.36
1871.1,553.36
1874.15,553.36
1877.21,553.36
1880.27,553.36
1883.33,553.36
1886.39,553.36
1889.45,553.36
1892.51,553.36
1895.57,553.36
1898.63,553.36
1901.69,553.36
1904.75,553.36
1907.81,316.206
1910.87,316.206
1913.93,316.206
1916.99,316.206
1920.05,316.206
1923.11,316.206
1926.17,316.206
1929.23,553.36
1932.29,553.36
1935.35,553.36
1938.41,553.36
1941.47,553.36
1944.52,553.36
1947.58,553.36
1950.64,553.36
1953.7,790.514
1956.76,790.514
1959.82,790.514
1962.88,790.514
1965.94,790.514
1969,553.36
1972.06,553.36
1975.12,553.36
1978.18,553.36
1981.24,553.36
1984.3,553.36
1987.36,553.36
1990.42,553.36
1993.48,553.36
1996.54,553.36
1999.6,553.36
2002.66,553.36
2005.72,553.36
2008.78,316.206
2011.84,316.206
2014.9,316.206
2017.95,316.206
2021.01,316.206
2024.07,316.206
2027.13,316.206
2030.19,316.206
2033.25,79.0514
2036.31,79.0514
2039.37,79.0514
2042.43,79.0514
2045.49,79.0514
2048.55,316.206
2051.61,316.206
2054.67,316.206
2057.73,316.206
2060.79,316.206
2063.85,316.206
2066.91,316.206
2069.97,316.206
2073.03,316.206
2076.09,316.206
2079.15,316.206
2082.21,316.206
2085.27,316.206
2088.33,316.206
2091.38,316.206
2094.44,553.36
2097.5,790.514
2100.56,1027.67
2103.62,1027.67
2106.68,790.514
2109.74,790.514
2112.8,790.514
2115.86,790.514
2118.92,790.514
2121.98,790.514
2125.04,790.514
2128.1,790.514
2131.16,790.514
2134.22,790.514
2137.28,790.514
2140.34,790.514
2143.4,553.36
2146.46,316.206
2149.52,316.206
2152.58,316.206
2155.64,316.206
2158.7,553.36
2161.76,553.36
2164.81,553.36
2167.87,553.36
2170.93,316.206
2173.99,316.206
2177.05,316.206
2180.11,316.206
2183.17,316.206
2186.23,553.36
2189.29,553.36
2192.35,553.36
2195.41,553.36
2198.47,553.36
2201.53,553.36
2204.59,553.36
2207.65,553.36
2210.71,553.36
2213.77,316.206
2216.83,316.206
2219.89,316.206
2222.95,316.206
2226.01,553.36
2229.07,553.36
2232.13,790.514
2235.19,790.514
2238.24,553.36
2241.3,316.206
2244.36,79.0514
2247.42,79.0514
2250.48,79.0514
2253.54,316.206
2256.6,316.206
2259.66,553.36
2262.72,553.36
2265.78,553.36
2268.84,316.206
2271.9,316.206
2274.96,316.206
2278.02,316.206
2281.08,316.206
2284.14,316.206
2287.2,316.206
2290.26,79.0514
