,GP550R
RamanShit,Intensity
258.828,110.236
261.878,236.22
264.928,236.22
267.978,173.228
271.027,110.236
274.077,47.2441
277.127,47.2441
280.177,47.2441
283.226,47.2441
286.276,110.236
289.326,110.236
292.376,110.236
295.425,110.236
298.475,110.236
301.525,110.236
304.575,173.228
307.624,236.22
310.674,236.22
313.724,236.22
316.774,299.213
319.823,299.213
322.873,236.22
325.923,173.228
328.973,173.228
332.022,173.228
335.072,236.22
338.122,236.22
341.172,299.213
344.222,362.205
347.271,488.189
350.321,614.173
353.371,803.15
356.421,614.173
359.47,488.189
362.52,236.22
365.57,173.228
368.62,173.228
371.669,110.236
374.719,110.236
377.769,110.236
380.819,110.236
383.868,173.228
386.918,236.22
389.968,236.22
393.018,299.213
396.067,299.213
399.117,236.22
402.167,236.22
405.217,173.228
408.266,173.228
411.316,173.228
414.366,173.228
417.416,236.22
420.465,236.22
423.515,236.22
426.565,236.22
429.615,236.22
432.665,236.22
435.714,236.22
438.764,299.213
441.814,362.205
444.864,614.173
447.913,929.134
450.963,1433.07
454.013,2503.94
457.063,4771.65
460.112,6346.46
463.162,9811.02
466.212,6346.46
469.262,6157.48
472.311,4708.66
475.361,2755.91
478.411,1748.03
481.461,1244.09
484.51,929.134
487.56,677.165
490.61,551.181
493.66,425.197
496.709,362.205
499.759,299.213
502.809,299.213
505.859,236.22
508.909,173.228
511.958,173.228
515.008,110.236
518.058,110.236
521.108,110.236
524.157,110.236
527.207,110.236
530.257,173.228
533.307,173.228
536.356,173.228
539.406,299.213
542.456,173.228
545.506,173.228
548.555,236.22
551.605,236.22
554.655,236.22
557.705,299.213
560.754,299.213
563.804,299.213
566.854,236.22
569.904,236.22
572.953,236.22
576.003,173.228
579.053,173.228
582.103,110.236
585.152,110.236
588.202,110.236
591.252,173.228
594.302,236.22
597.352,299.213
600.401,299.213
603.451,236.22
606.501,236.22
609.551,173.228
612.6,173.228
615.65,173.228
618.7,173.228
621.75,236.22
624.799,236.22
627.849,236.22
630.899,173.228
633.949,173.228
636.998,173.228
640.048,173.228
643.098,173.228
646.148,173.228
649.197,236.22
652.247,299.213
655.297,362.205
658.347,425.197
661.396,425.197
664.446,362.205
667.496,362.205
670.546,362.205
673.596,362.205
676.645,362.205
679.695,362.205
682.745,488.189
685.795,362.205
688.844,362.205
691.894,425.197
694.944,425.197
697.994,425.197
701.043,425.197
704.093,425.197
707.143,488.189
710.193,488.189
713.242,488.189
716.292,425.197
719.342,425.197
722.392,362.205
725.441,299.213
728.491,236.22
731.541,236.22
734.591,236.22
737.64,299.213
740.69,425.197
743.74,866.142
746.79,2125.98
749.839,2314.96
752.889,1055.12
755.939,803.15
758.989,362.205
762.039,299.213
765.088,236.22
768.138,173.228
771.188,173.228
774.238,173.228
777.287,173.228
780.337,236.22
783.387,236.22
786.437,236.22
789.486,236.22
792.536,299.213
795.586,362.205
798.636,362.205
801.685,362.205
804.735,362.205
807.785,362.205
810.835,362.205
813.884,299.213
816.934,236.22
819.984,173.228
823.034,173.228
826.083,173.228
829.133,173.228
832.183,236.22
835.233,173.228
838.283,173.228
841.332,173.228
844.382,173.228
847.432,173.228
850.482,110.236
853.531,110.236
856.581,173.228
859.631,173.228
862.681,236.22
865.73,236.22
868.78,173.228
871.83,173.228
874.88,173.228
877.929,110.236
880.979,110.236
884.029,110.236
887.079,110.236
890.128,110.236
893.178,110.236
896.228,110.236
899.278,110.236
902.327,173.228
905.377,173.228
908.427,173.228
911.477,173.228
914.526,236.22
917.576,236.22
920.626,236.22
923.676,173.228
926.726,173.228
929.775,173.228
932.825,110.236
935.875,110.236
938.925,110.236
941.974,110.236
945.024,173.228
948.074,236.22
951.124,236.22
954.173,299.213
957.223,299.213
960.273,236.22
963.323,236.22
966.372,173.228
969.422,173.228
972.472,110.236
975.522,110.236
978.571,110.236
981.621,110.236
984.671,173.228
987.721,173.228
990.77,236.22
993.82,236.22
996.87,236.22
999.92,236.22
1002.97,236.22
1006.02,299.213
1009.07,299.213
1012.12,362.205
1015.17,299.213
1018.22,299.213
1021.27,299.213
1024.32,236.22
1027.37,173.228
1030.42,173.228
1033.47,173.228
1036.52,173.228
1039.57,173.228
1042.62,173.228
1045.67,173.228
1048.72,173.228
1051.77,173.228
1054.82,173.228
1057.87,236.22
1060.91,299.213
1063.96,362.205
1067.01,614.173
1070.06,677.165
1073.11,740.157
1076.16,677.165
1079.21,677.165
1082.26,614.173
1085.31,488.189
1088.36,362.205
1091.41,299.213
1094.46,299.213
1097.51,299.213
1100.56,236.22
1103.61,173.228
1106.66,110.236
1109.71,110.236
1112.76,110.236
1115.81,110.236
1118.86,173.228
1121.91,173.228
1124.96,173.228
1128.01,236.22
1131.06,299.213
1134.11,425.197
1137.16,551.181
1140.21,677.165
1143.26,740.157
1146.31,740.157
1149.36,803.15
1152.41,929.134
1155.46,1055.12
1158.51,1118.11
1161.56,1244.09
1164.61,1118.11
1167.66,929.134
1170.71,740.157
1173.76,740.157
1176.81,740.157
1179.86,866.142
1182.91,929.134
1185.96,929.134
1189,929.134
1192.05,866.142
1195.1,740.157
1198.15,551.181
1201.2,488.189
1204.25,488.189
1207.3,488.189
1210.35,488.189
1213.4,425.197
1216.45,425.197
1219.5,425.197
1222.55,425.197
1225.6,236.22
1228.65,173.228
1231.7,110.236
1234.75,47.2441
1237.8,47.2441
1240.85,47.2441
1243.9,110.236
1246.95,173.228
1250,236.22
1253.05,299.213
1256.1,362.205
1259.15,362.205
1262.2,362.205
1265.25,362.205
1268.3,362.205
1271.35,362.205
1274.4,362.205
1277.45,425.197
1280.5,362.205
1283.55,362.205
1286.6,362.205
1289.65,299.213
1292.7,236.22
1295.75,236.22
1298.8,236.22
1301.85,173.228
1304.9,173.228
1307.95,173.228
1311,173.228
1314.04,236.22
1317.09,362.205
1320.14,488.189
1323.19,677.165
1326.24,740.157
1329.29,929.134
1332.34,1181.1
1335.39,1559.06
1338.44,1811.02
1341.49,2000
1344.54,1811.02
1347.59,1622.05
1350.64,1181.1
1353.69,866.142
1356.74,614.173
1359.79,551.181
1362.84,488.189
1365.89,488.189
1368.94,425.197
1371.99,362.205
1375.04,362.205
1378.09,362.205
1381.14,362.205
1384.19,362.205
1387.24,362.205
1390.29,362.205
1393.34,362.205
1396.39,362.205
1399.44,362.205
1402.49,362.205
1405.54,362.205
1408.59,299.213
1411.64,299.213
1414.69,299.213
1417.74,299.213
1420.79,362.205
1423.84,362.205
1426.89,362.205
1429.94,362.205
1432.99,362.205
1436.04,362.205
1439.09,362.205
1442.13,362.205
1445.18,425.197
1448.23,425.197
1451.28,488.189
1454.33,488.189
1457.38,425.197
1460.43,362.205
1463.48,299.213
1466.53,173.228
1469.58,110.236
1472.63,110.236
1475.68,110.236
1478.73,110.236
1481.78,110.236
1484.83,110.236
1487.88,110.236
1490.93,110.236
1493.98,110.236
1497.03,173.228
1500.08,236.22
1503.13,236.22
1506.18,299.213
1509.23,299.213
1512.28,362.205
1515.33,425.197
1518.38,488.189
1521.43,614.173
1524.48,929.134
1527.53,1370.08
1530.58,2000
1533.63,2818.9
1536.68,3259.84
1539.73,3574.8
1542.78,3259.84
1545.83,3007.87
1548.88,2377.95
1551.93,1685.04
1554.98,1370.08
1558.03,1118.11
1561.08,929.134
1564.13,866.142
1567.17,866.142
1570.22,866.142
1573.27,803.15
1576.32,677.165
1579.37,551.181
1582.42,488.189
1585.47,425.197
1588.52,299.213
1591.57,173.228
1594.62,173.228
1597.67,173.228
1600.72,236.22
1603.77,299.213
1606.82,488.189
1609.87,551.181
1612.92,677.165
1615.97,551.181
1619.02,488.189
1622.07,488.189
1625.12,362.205
1628.17,362.205
1631.22,299.213
1634.27,173.228
1637.32,110.236
1640.37,47.2441
1643.42,47.2441
1646.47,47.2441
1649.52,47.2441
1652.57,110.236
1655.62,110.236
1658.67,110.236
1661.72,110.236
1664.77,110.236
1667.82,110.236
1670.87,173.228
1673.92,173.228
1676.97,173.228
1680.02,173.228
1683.07,236.22
1686.12,236.22
1689.17,236.22
1692.22,236.22
1695.26,236.22
1698.31,236.22
1701.36,236.22
1704.41,236.22
1707.46,236.22
1710.51,236.22
1713.56,236.22
1716.61,173.228
1719.66,173.228
1722.71,110.236
1725.76,110.236
1728.81,110.236
1731.86,110.236
1734.91,110.236
1737.96,110.236
1741.01,110.236
1744.06,110.236
1747.11,110.236
1750.16,110.236
1753.21,110.236
1756.26,110.236
1759.31,110.236
1762.36,110.236
1765.41,110.236
1768.46,173.228
1771.51,173.228
1774.56,173.228
1777.61,173.228
1780.66,173.228
1783.71,173.228
1786.76,173.228
1789.81,110.236
1792.86,110.236
1795.91,110.236
1798.96,110.236
1802.01,173.228
1805.06,173.228
1808.11,173.228
1811.16,236.22
1814.21,173.228
1817.26,173.228
1820.3,173.228
1823.35,173.228
1826.4,173.228
1829.45,173.228
1832.5,173.228
1835.55,173.228
1838.6,173.228
1841.65,173.228
1844.7,173.228
1847.75,173.228
1850.8,173.228
1853.85,173.228
1856.9,173.228
1859.95,236.22
1863,236.22
1866.05,236.22
1869.1,236.22
1872.15,299.213
1875.2,299.213
1878.25,362.205
1881.3,299.213
1884.35,299.213
1887.4,299.213
1890.45,299.213
1893.5,299.213
1896.55,299.213
1899.6,299.213
1902.65,299.213
1905.7,299.213
1908.75,236.22
1911.8,236.22
1914.85,236.22
1917.9,236.22
1920.95,236.22
1924,236.22
1927.05,236.22
1930.1,236.22
1933.15,299.213
1936.2,299.213
1939.25,299.213
1942.3,299.213
1945.35,299.213
1948.39,362.205
1951.44,362.205
1954.49,362.205
1957.54,362.205
1960.59,362.205
1963.64,299.213
1966.69,299.213
1969.74,236.22
1972.79,236.22
1975.84,173.228
1978.89,173.228
1981.94,173.228
1984.99,173.228
1988.04,173.228
1991.09,173.228
1994.14,173.228
1997.19,173.228
2000.24,173.228
2003.29,173.228
2006.34,173.228
2009.39,110.236
2012.44,110.236
2015.49,110.236
2018.54,110.236
2021.59,110.236
2024.64,110.236
2027.69,110.236
2030.74,110.236
2033.79,110.236
2036.84,110.236
2039.89,110.236
2042.94,110.236
2045.99,110.236
2049.04,173.228
2052.09,110.236
2055.14,110.236
2058.19,110.236
2061.24,110.236
2064.29,110.236
2067.34,110.236
2070.39,110.236
2073.43,110.236
2076.48,110.236
2079.53,110.236
2082.58,110.236
2085.63,110.236
2088.68,173.228
2091.73,236.22
2094.78,236.22
2097.83,299.213
2100.88,299.213
2103.93,299.213
2106.98,299.213
2110.03,299.213
2113.08,299.213
2116.13,299.213
2119.18,299.213
2122.23,299.213
2125.28,299.213
2128.33,299.213
2131.38,236.22
2134.43,236.22
2137.48,236.22
2140.53,173.228
2143.58,173.228
2146.63,173.228
2149.68,173.228
2152.73,173.228
2155.78,173.228
2158.83,236.22
2161.88,236.22
2164.93,173.228
2167.98,173.228
2171.03,173.228
2174.08,173.228
2177.13,173.228
2180.18,173.228
2183.23,173.228
2186.28,173.228
2189.33,173.228
2192.38,173.228
2195.43,173.228
2198.48,173.228
2201.52,173.228
2204.57,173.228
2207.62,236.22
2210.67,173.228
2213.72,173.228
2216.77,173.228
2219.82,173.228
2222.87,173.228
2225.92,236.22
2228.97,236.22
2232.02,236.22
2235.07,173.228
2238.12,110.236
2241.17,110.236
2244.22,110.236
2247.27,110.236
2250.32,173.228
2253.37,173.228
2256.42,173.228
2259.47,173.228
2262.52,173.228
2265.57,173.228
2268.62,173.228
2271.67,173.228
2274.72,173.228
2277.77,173.228
2280.82,110.236
2283.87,173.228
2286.92,236.22
2289.97,110.236
