,GP550R
RamanShit,Intensity
255.565,2000
258.629,2692.91
261.694,2692.91
264.758,3007.87
267.823,2755.91
270.887,2818.9
273.952,2881.89
277.016,2881.89
280.081,2944.88
283.145,4015.75
286.21,2944.88
289.274,2251.97
292.339,1244.09
295.403,677.165
298.468,362.205
301.532,236.22
304.597,110.236
307.661,47.2441
310.726,47.2441
313.79,47.2441
316.855,47.2441
319.919,110.236
322.984,173.228
326.048,299.213
329.113,488.189
332.177,362.205
335.242,236.22
338.306,173.228
341.371,110.236
344.435,110.236
347.5,110.236
350.565,110.236
353.629,110.236
356.694,110.236
359.758,110.236
362.823,110.236
365.887,110.236
368.952,173.228
372.016,299.213
375.081,173.228
378.145,110.236
381.21,110.236
384.274,110.236
387.339,110.236
390.403,173.228
393.468,236.22
396.532,299.213
399.597,425.197
402.661,425.197
405.726,425.197
408.79,425.197
411.855,362.205
414.919,299.213
417.984,173.228
421.048,110.236
424.113,110.236
427.177,110.236
430.242,110.236
433.306,110.236
436.371,173.228
439.435,299.213
442.5,614.173
445.565,1055.12
448.629,1622.05
451.694,3259.84
454.758,3511.81
457.823,2000
460.887,2000
463.952,2125.98
467.016,2188.98
470.081,2314.96
473.145,3889.76
476.21,4267.72
479.274,2314.96
482.339,2062.99
485.403,1496.06
488.468,1181.1
491.532,992.126
494.597,1181.1
497.661,1433.07
500.726,2251.97
503.79,3763.78
506.855,6031.5
509.919,7417.32
512.984,9874.02
516.048,7354.33
519.113,5527.56
522.177,2566.93
525.242,1244.09
528.306,740.157
531.371,488.189
534.435,362.205
537.5,299.213
540.565,173.228
543.629,110.236
546.694,110.236
549.758,110.236
552.823,110.236
555.887,110.236
558.952,110.236
562.016,110.236
565.081,110.236
568.145,110.236
571.21,110.236
574.274,110.236
577.339,110.236
580.403,173.228
583.468,173.228
586.532,110.236
589.597,110.236
592.661,110.236
595.726,110.236
598.79,110.236
601.855,110.236
604.919,110.236
607.984,110.236
611.048,110.236
614.113,110.236
617.177,110.236
620.242,110.236
623.306,173.228
626.371,236.22
629.435,236.22
632.5,299.213
635.565,362.205
638.629,425.197
641.694,551.181
644.758,614.173
647.823,677.165
650.887,677.165
653.952,677.165
657.016,551.181
660.081,425.197
663.145,299.213
666.21,173.228
669.274,173.228
672.339,110.236
675.403,110.236
678.468,110.236
681.532,110.236
684.597,110.236
687.661,110.236
690.726,110.236
693.79,110.236
696.855,110.236
699.919,110.236
702.984,110.236
706.048,110.236
709.113,110.236
712.177,110.236
715.242,110.236
718.306,173.228
721.371,173.228
724.435,173.228
727.5,173.228
730.565,236.22
733.629,299.213
736.694,362.205
739.758,488.189
742.823,803.15
745.887,992.126
748.952,1622.05
752.016,1811.02
755.081,929.134
758.145,740.157
761.21,488.189
764.274,425.197
767.339,362.205
770.403,299.213
773.468,236.22
776.532,173.228
779.597,173.228
782.661,173.228
785.726,173.228
788.79,173.228
791.855,173.228
794.919,236.22
797.984,299.213
801.048,362.205
804.113,488.189
807.177,803.15
810.242,992.126
813.306,1748.03
816.371,1370.08
819.435,866.142
822.5,614.173
825.565,299.213
828.629,173.228
831.694,173.228
834.758,173.228
837.823,110.236
840.887,110.236
843.952,110.236
847.016,110.236
850.081,110.236
853.145,110.236
856.21,110.236
859.274,173.228
862.339,173.228
865.403,173.228
868.468,173.228
871.532,173.228
874.597,173.228
877.661,173.228
880.726,173.228
883.79,173.228
886.855,173.228
889.919,173.228
892.984,173.228
896.048,173.228
899.113,173.228
902.177,173.228
905.242,110.236
908.306,110.236
911.371,110.236
914.435,110.236
917.5,110.236
920.565,110.236
923.629,110.236
926.694,173.228
929.758,173.228
932.823,173.228
935.887,173.228
938.952,173.228
942.016,173.228
945.081,110.236
948.145,110.236
951.21,110.236
954.274,110.236
957.339,110.236
960.403,110.236
963.468,110.236
966.532,110.236
969.597,110.236
972.661,173.228
975.726,236.22
978.79,236.22
981.855,236.22
984.919,299.213
987.984,362.205
991.048,425.197
994.113,614.173
997.177,551.181
1000.24,488.189
1003.31,425.197
1006.37,299.213
1009.44,299.213
1012.5,299.213
1015.56,299.213
1018.63,173.228
1021.69,173.228
1024.76,173.228
1027.82,173.228
1030.89,173.228
1033.95,236.22
1037.02,236.22
1040.08,236.22
1043.15,173.228
1046.21,173.228
1049.27,173.228
1052.34,173.228
1055.4,173.228
1058.47,110.236
1061.53,110.236
1064.6,110.236
1067.66,110.236
1070.73,110.236
1073.79,110.236
1076.85,110.236
1079.92,110.236
1082.98,173.228
1086.05,236.22
1089.11,299.213
1092.18,299.213
1095.24,299.213
1098.31,299.213
1101.37,299.213
1104.44,299.213
1107.5,362.205
1110.56,362.205
1113.63,362.205
1116.69,425.197
1119.76,425.197
1122.82,488.189
1125.89,551.181
1128.95,551.181
1132.02,551.181
1135.08,551.181
1138.15,551.181
1141.21,551.181
1144.27,488.189
1147.34,362.205
1150.4,299.213
1153.47,236.22
1156.53,236.22
1159.6,236.22
1162.66,236.22
1165.73,110.236
1168.79,110.236
1171.85,110.236
1174.92,110.236
1177.98,110.236
1181.05,110.236
1184.11,173.228
1187.18,173.228
1190.24,173.228
1193.31,173.228
1196.37,173.228
1199.44,173.228
1202.5,173.228
1205.56,173.228
1208.63,173.228
1211.69,173.228
1214.76,173.228
1217.82,173.228
1220.89,173.228
1223.95,173.228
1227.02,173.228
1230.08,173.228
1233.15,173.228
1236.21,110.236
1239.27,110.236
1242.34,47.2441
1245.4,47.2441
1248.47,47.2441
1251.53,47.2441
1254.6,47.2441
1257.66,47.2441
1260.73,47.2441
1263.79,47.2441
1266.85,47.2441
1269.92,47.2441
1272.98,47.2441
1276.05,47.2441
1279.11,47.2441
1282.18,47.2441
1285.24,47.2441
1288.31,47.2441
1291.37,47.2441
1294.44,47.2441
1297.5,47.2441
1300.56,47.2441
1303.63,47.2441
1306.69,47.2441
1309.76,47.2441
1312.82,47.2441
1315.89,47.2441
1318.95,47.2441
1322.02,47.2441
1325.08,47.2441
1328.15,47.2441
1331.21,47.2441
1334.27,47.2441
1337.34,47.2441
1340.4,47.2441
1343.47,47.2441
1346.53,47.2441
1349.6,47.2441
1352.66,47.2441
1355.73,47.2441
1358.79,47.2441
1361.85,47.2441
1364.92,47.2441
1367.98,47.2441
1371.05,47.2441
1374.11,47.2441
1377.18,47.2441
1380.24,47.2441
1383.31,47.2441
1386.37,47.2441
1389.44,47.2441
1392.5,47.2441
1395.56,47.2441
1398.63,47.2441
1401.69,47.2441
1404.76,47.2441
1407.82,47.2441
1410.89,47.2441
1413.95,47.2441
1417.02,47.2441
1420.08,47.2441
1423.15,47.2441
1426.21,47.2441
1429.27,47.2441
1432.34,47.2441
1435.4,47.2441
1438.47,47.2441
1441.53,47.2441
1444.6,47.2441
1447.66,47.2441
1450.73,47.2441
1453.79,47.2441
1456.85,47.2441
1459.92,47.2441
1462.98,47.2441
1466.05,47.2441
1469.11,47.2441
1472.18,47.2441
1475.24,47.2441
1478.31,47.2441
1481.37,47.2441
1484.44,47.2441
1487.5,47.2441
1490.56,47.2441
1493.63,47.2441
1496.69,47.2441
1499.76,47.2441
1502.82,47.2441
1505.89,47.2441
1508.95,47.2441
1512.02,47.2441
1515.08,47.2441
1518.15,47.2441
1521.21,47.2441
1524.27,47.2441
1527.34,47.2441
1530.4,47.2441
1533.47,47.2441
1536.53,47.2441
1539.6,47.2441
1542.66,47.2441
1545.73,47.2441
1548.79,47.2441
1551.85,47.2441
1554.92,47.2441
1557.98,47.2441
1561.05,47.2441
1564.11,47.2441
1567.18,47.2441
1570.24,47.2441
1573.31,47.2441
1576.37,47.2441
1579.44,47.2441
1582.5,47.2441
1585.56,47.2441
1588.63,47.2441
1591.69,47.2441
1594.76,47.2441
1597.82,47.2441
1600.89,47.2441
1603.95,47.2441
1607.02,47.2441
1610.08,47.2441
1613.15,47.2441
1616.21,47.2441
1619.27,47.2441
1622.34,47.2441
1625.4,47.2441
1628.47,47.2441
1631.53,47.2441
1634.6,47.2441
1637.66,47.2441
1640.73,47.2441
1643.79,47.2441
1646.85,47.2441
1649.92,47.2441
1652.98,47.2441
1656.05,47.2441
1659.11,47.2441
1662.18,47.2441
1665.24,47.2441
1668.31,47.2441
1671.37,47.2441
1674.44,47.2441
1677.5,47.2441
1680.56,47.2441
1683.63,47.2441
1686.69,47.2441
1689.76,47.2441
1692.82,47.2441
1695.89,47.2441
1698.95,47.2441
1702.02,47.2441
1705.08,47.2441
1708.15,47.2441
1711.21,47.2441
1714.27,47.2441
1717.34,47.2441
1720.4,47.2441
1723.47,47.2441
1726.53,47.2441
1729.6,47.2441
1732.66,47.2441
1735.73,47.2441
1738.79,47.2441
1741.85,47.2441
1744.92,47.2441
1747.98,47.2441
1751.05,47.2441
1754.11,47.2441
1757.18,47.2441
1760.24,47.2441
1763.31,47.2441
1766.37,47.2441
1769.44,47.2441
1772.5,47.2441
1775.56,47.2441
1778.63,47.2441
1781.69,47.2441
1784.76,47.2441
1787.82,47.2441
1790.89,47.2441
1793.95,47.2441
1797.02,47.2441
1800.08,47.2441
1803.15,47.2441
1806.21,47.2441
1809.27,47.2441
1812.34,47.2441
1815.4,47.2441
1818.47,47.2441
1821.53,47.2441
1824.6,47.2441
1827.66,47.2441
1830.73,47.2441
1833.79,47.2441
1836.85,47.2441
1839.92,47.2441
1842.98,47.2441
1846.05,47.2441
1849.11,47.2441
1852.18,47.2441
1855.24,47.2441
1858.31,47.2441
1861.37,47.2441
1864.44,47.2441
1867.5,47.2441
1870.56,47.2441
1873.63,47.2441
1876.69,47.2441
1879.76,47.2441
1882.82,47.2441
1885.89,47.2441
1888.95,47.2441
1892.02,47.2441
1895.08,47.2441
1898.15,47.2441
1901.21,47.2441
1904.27,47.2441
1907.34,47.2441
1910.4,47.2441
1913.47,47.2441
1916.53,47.2441
1919.6,47.2441
1922.66,47.2441
1925.73,47.2441
1928.79,47.2441
1931.85,47.2441
1934.92,47.2441
1937.98,47.2441
1941.05,47.2441
1944.11,47.2441
1947.18,47.2441
1950.24,47.2441
1953.31,47.2441
1956.37,47.2441
1959.44,47.2441
1962.5,47.2441
1965.56,47.2441
1968.63,47.2441
1971.69,47.2441
1974.76,47.2441
1977.82,47.2441
1980.89,47.2441
1983.95,47.2441
1987.02,47.2441
1990.08,47.2441
1993.15,47.2441
1996.21,47.2441
1999.27,47.2441
2002.34,47.2441
2005.4,47.2441
2008.47,47.2441
2011.53,47.2441
2014.6,47.2441
2017.66,47.2441
2020.73,47.2441
2023.79,47.2441
2026.85,47.2441
2029.92,47.2441
2032.98,47.2441
2036.05,47.2441
2039.11,47.2441
2042.18,47.2441
2045.24,47.2441
2048.31,47.2441
2051.37,47.2441
2054.44,47.2441
2057.5,47.2441
2060.56,47.2441
2063.63,47.2441
2066.69,47.2441
2069.76,47.2441
2072.82,47.2441
2075.89,47.2441
2078.95,47.2441
2082.02,47.2441
2085.08,47.2441
2088.15,47.2441
2091.21,47.2441
2094.27,47.2441
2097.34,47.2441
2100.4,47.2441
2103.47,47.2441
2106.53,47.2441
2109.6,47.2441
2112.66,47.2441
2115.73,47.2441
2118.79,47.2441
2121.85,47.2441
2124.92,47.2441
2127.98,47.2441
2131.05,47.2441
2134.11,47.2441
2137.18,47.2441
2140.24,47.2441
2143.31,47.2441
2146.37,47.2441
2149.44,47.2441
2152.5,47.2441
2155.56,47.2441
2158.63,47.2441
2161.69,47.2441
2164.76,47.2441
2167.82,47.2441
2170.89,47.2441
2173.95,47.2441
2177.02,47.2441
2180.08,47.2441
2183.15,47.2441
2186.21,47.2441
2189.27,47.2441
2192.34,47.2441
2195.4,47.2441
2198.47,47.2441
2201.53,47.2441
2204.6,47.2441
2207.66,47.2441
2210.73,47.2441
2213.79,47.2441
2216.85,47.2441
2219.92,47.2441
2222.98,47.2441
2226.05,47.2441
2229.11,47.2441
2232.18,47.2441
2235.24,47.2441
2238.31,47.2441
2241.37,47.2441
2244.44,47.2441
2247.5,47.2441
2250.56,47.2441
2253.63,47.2441
2256.69,47.2441
2259.76,47.2441
2262.82,47.2441
2265.89,47.2441
2268.95,47.2441
2272.02,47.2441
2275.08,47.2441
2278.15,47.2441
2281.21,47.2441
2284.27,47.2441
2287.34,47.2441
2290.4,47.2441
2293.47,47.2441
