,GP550R
RamanShit,Intensity
260.951,1.81818
264.346,1.81818
267.742,1.81818
271.138,1.81818
274.533,1.81818
277.929,13.4545
281.324,19.2727
284.72,25.0909
288.115,30.9091
291.511,42.5455
294.907,48.3636
298.302,60
301.698,42.5455
305.093,36.7273
308.489,19.2727
311.885,25.0909
315.28,30.9091
318.676,36.7273
322.071,36.7273
325.467,48.3636
328.862,60
332.258,71.6364
335.654,94.9091
339.049,112.364
342.445,112.364
345.84,118.182
349.236,124
352.632,129.818
356.027,129.818
359.423,129.818
362.818,205.455
366.214,217.091
369.61,199.636
373.005,199.636
376.401,199.636
379.796,199.636
383.192,199.636
386.587,292.727
389.983,298.545
393.379,298.545
396.774,298.545
400.17,118.182
403.565,89.0909
406.961,89.0909
410.357,71.6364
413.752,60
417.148,60
420.543,54.1818
423.939,54.1818
427.334,54.1818
430.73,42.5455
434.126,30.9091
437.521,25.0909
440.917,7.63636
444.312,7.63636
447.708,7.63636
451.104,7.63636
454.499,7.63636
457.895,7.63636
461.29,7.63636
464.686,13.4545
468.081,19.2727
471.477,19.2727
474.873,19.2727
478.268,19.2727
481.664,19.2727
485.059,13.4545
488.455,13.4545
491.851,7.63636
495.246,7.63636
498.642,13.4545
502.037,19.2727
505.433,30.9091
508.829,54.1818
512.224,71.6364
515.62,83.2727
519.015,89.0909
522.411,89.0909
525.806,89.0909
529.202,77.4545
532.598,54.1818
535.993,36.7273
539.389,25.0909
542.784,25.0909
546.18,25.0909
549.576,25.0909
552.971,19.2727
556.367,19.2727
559.762,19.2727
563.158,19.2727
566.553,13.4545
569.949,13.4545
573.345,7.63636
576.74,13.4545
580.136,7.63636
583.531,7.63636
586.927,7.63636
590.323,7.63636
593.718,7.63636
597.114,7.63636
600.509,13.4545
603.905,13.4545
607.301,19.2727
610.696,19.2727
614.092,19.2727
617.487,19.2727
620.883,25.0909
624.278,25.0909
627.674,25.0909
631.07,25.0909
634.465,30.9091
637.861,54.1818
641.256,83.2727
644.652,100.727
648.048,147.273
651.443,222.909
654.839,350.909
658.234,810.545
661.63,839.636
665.025,926.909
668.421,1438.91
671.817,1363.27
675.212,1008.36
678.608,979.273
682.003,793.091
685.399,595.273
688.795,636
692.19,630.182
695.586,112.364
698.981,94.9091
702.377,71.6364
705.772,48.3636
709.168,30.9091
712.564,19.2727
715.959,19.2727
719.355,19.2727
722.75,19.2727
726.146,25.0909
729.542,36.7273
732.937,36.7273
736.333,36.7273
739.728,42.5455
743.124,42.5455
746.52,42.5455
749.915,36.7273
753.311,25.0909
756.706,25.0909
760.102,25.0909
763.497,25.0909
766.893,25.0909
770.289,19.2727
773.684,19.2727
777.08,19.2727
780.475,25.0909
783.871,25.0909
787.267,25.0909
790.662,25.0909
794.058,25.0909
797.453,25.0909
800.849,25.0909
804.244,25.0909
807.64,25.0909
811.036,19.2727
814.431,19.2727
817.827,19.2727
821.222,19.2727
824.618,13.4545
828.014,13.4545
831.409,13.4545
834.805,13.4545
838.2,13.4545
841.596,13.4545
844.992,13.4545
848.387,19.2727
851.783,19.2727
855.178,19.2727
858.574,19.2727
861.969,19.2727
865.365,19.2727
868.761,19.2727
872.156,19.2727
875.552,19.2727
878.947,19.2727
882.343,19.2727
885.739,19.2727
889.134,13.4545
892.53,25.0909
895.925,30.9091
899.321,36.7273
902.716,36.7273
906.112,36.7273
909.508,36.7273
912.903,54.1818
916.299,83.2727
919.694,124
923.09,158.909
926.486,193.818
929.881,158.909
933.277,153.091
936.672,135.636
940.068,124
943.463,112.364
946.859,100.727
950.255,77.4545
953.65,54.1818
957.046,36.7273
960.441,30.9091
963.837,25.0909
967.233,25.0909
970.628,19.2727
974.024,19.2727
977.419,19.2727
980.815,19.2727
984.211,13.4545
987.606,13.4545
991.002,13.4545
994.397,19.2727
997.793,19.2727
1001.19,19.2727
1004.58,36.7273
1007.98,54.1818
1011.38,71.6364
1014.77,100.727
1018.17,129.818
1021.56,147.273
1024.96,211.273
1028.35,199.636
1031.75,199.636
1035.14,199.636
1038.54,199.636
1041.94,548.727
1045.33,554.545
1048.73,531.273
1052.12,554.545
1055.52,577.818
1058.91,653.455
1062.31,333.455
1065.7,316
1069.1,269.455
1072.5,188
1075.89,118.182
1079.29,129.818
1082.68,124
1086.08,42.5455
1089.47,36.7273
1092.87,30.9091
1096.26,25.0909
1099.66,25.0909
1103.06,25.0909
1106.45,19.2727
1109.85,19.2727
1113.24,19.2727
1116.64,19.2727
1120.03,19.2727
1123.43,19.2727
1126.83,19.2727
1130.22,19.2727
1133.62,19.2727
1137.01,19.2727
1140.41,19.2727
1143.8,19.2727
1147.2,19.2727
1150.59,19.2727
1153.99,19.2727
1157.39,19.2727
1160.78,19.2727
1164.18,19.2727
1167.57,19.2727
1170.97,25.0909
1174.36,25.0909
1177.76,25.0909
1181.15,25.0909
1184.55,25.0909
1187.95,25.0909
1191.34,25.0909
1194.74,19.2727
1198.13,25.0909
1201.53,25.0909
1204.92,25.0909
1208.32,25.0909
1211.71,19.2727
1215.11,19.2727
1218.51,19.2727
1221.9,13.4545
1225.3,19.2727
1228.69,19.2727
1232.09,19.2727
1235.48,25.0909
1238.88,25.0909
1242.28,25.0909
1245.67,25.0909
1249.07,25.0909
1252.46,25.0909
1255.86,25.0909
1259.25,25.0909
1262.65,25.0909
1266.04,25.0909
1269.44,25.0909
1272.84,25.0909
1276.23,25.0909
1279.63,25.0909
1283.02,25.0909
1286.42,25.0909
1289.81,25.0909
1293.21,25.0909
1296.6,30.9091
1300,36.7273
1303.4,36.7273
1306.79,36.7273
1310.19,36.7273
1313.58,42.5455
1316.98,42.5455
1320.37,42.5455
1323.77,48.3636
1327.16,54.1818
1330.56,54.1818
1333.96,54.1818
1337.35,54.1818
1340.75,54.1818
1344.14,54.1818
1347.54,54.1818
1350.93,60
1354.33,60
1357.72,60
1361.12,36.7273
1364.52,36.7273
1367.91,36.7273
1371.31,36.7273
1374.7,25.0909
1378.1,25.0909
1381.49,25.0909
1384.89,25.0909
1388.29,25.0909
1391.68,19.2727
1395.08,19.2727
1398.47,19.2727
1401.87,19.2727
1405.26,19.2727
1408.66,19.2727
1412.05,25.0909
1415.45,25.0909
1418.85,25.0909
1422.24,25.0909
1425.64,25.0909
1429.03,25.0909
1432.43,25.0909
1435.82,19.2727
1439.22,25.0909
1442.61,25.0909
1446.01,25.0909
1449.41,25.0909
1452.8,25.0909
1456.2,25.0909
1459.59,19.2727
1462.99,19.2727
1466.38,19.2727
1469.78,19.2727
1473.17,19.2727
1476.57,19.2727
1479.97,19.2727
1483.36,19.2727
1486.76,19.2727
1490.15,19.2727
1493.55,19.2727
1496.94,19.2727
1500.34,25.0909
1503.74,25.0909
1507.13,25.0909
1510.53,25.0909
1513.92,25.0909
1517.32,25.0909
1520.71,25.0909
1524.11,25.0909
1527.5,25.0909
1530.9,25.0909
1534.3,25.0909
1537.69,25.0909
1541.09,19.2727
1544.48,19.2727
1547.88,19.2727
1551.27,19.2727
1554.67,19.2727
1558.06,25.0909
1561.46,30.9091
1564.86,30.9091
1568.25,30.9091
1571.65,30.9091
1575.04,30.9091
1578.44,30.9091
1581.83,30.9091
1585.23,36.7273
1588.62,30.9091
1592.02,25.0909
1595.42,30.9091
1598.81,30.9091
1602.21,30.9091
1605.6,30.9091
1609,30.9091
1612.39,30.9091
1615.79,30.9091
1619.19,36.7273
1622.58,36.7273
1625.98,36.7273
1629.37,36.7273
1632.77,36.7273
1636.16,36.7273
1639.56,36.7273
1642.95,30.9091
1646.35,30.9091
1649.75,30.9091
1653.14,30.9091
1656.54,30.9091
1659.93,30.9091
1663.33,30.9091
1666.72,30.9091
1670.12,36.7273
1673.51,48.3636
1676.91,30.9091
1680.31,30.9091
1683.7,30.9091
1687.1,36.7273
1690.49,36.7273
1693.89,36.7273
1697.28,36.7273
1700.68,36.7273
1704.07,36.7273
1707.47,36.7273
1710.87,48.3636
1714.26,48.3636
1717.66,48.3636
1721.05,48.3636
1724.45,48.3636
1727.84,48.3636
1731.24,48.3636
1734.63,42.5455
1738.03,42.5455
1741.43,36.7273
1744.82,36.7273
1748.22,36.7273
1751.61,36.7273
1755.01,36.7273
1758.4,42.5455
1761.8,42.5455
1765.2,48.3636
1768.59,48.3636
1771.99,54.1818
1775.38,54.1818
1778.78,54.1818
1782.17,48.3636
1785.57,48.3636
1788.96,48.3636
1792.36,54.1818
1795.76,54.1818
1799.15,54.1818
1802.55,60
1805.94,71.6364
1809.34,48.3636
1812.73,48.3636
1816.13,42.5455
1819.52,36.7273
1822.92,36.7273
1826.32,30.9091
1829.71,25.0909
1833.11,36.7273
1836.5,42.5455
1839.9,42.5455
1843.29,48.3636
1846.69,48.3636
1850.08,54.1818
1853.48,60
1856.88,60
1860.27,60
1863.67,60
1867.06,60
1870.46,54.1818
1873.85,54.1818
1877.25,48.3636
1880.65,48.3636
1884.04,42.5455
1887.44,30.9091
1890.83,30.9091
1894.23,25.0909
1897.62,30.9091
1901.02,36.7273
1904.41,42.5455
1907.81,48.3636
1911.21,48.3636
1914.6,54.1818
1918,54.1818
1921.39,54.1818
1924.79,54.1818
1928.18,54.1818
1931.58,48.3636
1934.97,48.3636
1938.37,48.3636
1941.77,48.3636
1945.16,48.3636
1948.56,48.3636
1951.95,48.3636
1955.35,48.3636
1958.74,48.3636
1962.14,54.1818
1965.53,60
1968.93,60
1972.33,60
1975.72,60
1979.12,60
1982.51,60
1985.91,60
1989.3,54.1818
1992.7,54.1818
1996.1,48.3636
1999.49,36.7273
2002.89,30.9091
2006.28,30.9091
2009.68,25.0909
2013.07,25.0909
2016.47,25.0909
2019.86,25.0909
2023.26,25.0909
2026.66,25.0909
2030.05,25.0909
2033.45,30.9091
2036.84,36.7273
2040.24,42.5455
2043.63,48.3636
2047.03,48.3636
2050.42,60
2053.82,71.6364
2057.22,71.6364
2060.61,71.6364
2064.01,71.6364
2067.4,30.9091
2070.8,30.9091
2074.19,30.9091
2077.59,30.9091
2080.98,30.9091
2084.38,30.9091
2087.78,30.9091
2091.17,36.7273
2094.57,42.5455
2097.96,83.2727
2101.36,60
2104.75,60
2108.15,60
2111.54,60
2114.94,60
2118.34,60
2121.73,54.1818
2125.13,77.4545
2128.52,60
2131.92,60
2135.31,42.5455
2138.71,60
2142.11,60
2145.5,60
2148.9,94.9091
2152.29,100.727
2155.69,94.9091
2159.08,60
2162.48,60
2165.87,60
2169.27,60
2172.67,48.3636
2176.06,118.182
2179.46,124
2182.85,118.182
2186.25,65.8182
2189.64,65.8182
2193.04,65.8182
2196.43,65.8182
2199.83,71.6364
2203.23,71.6364
2206.62,71.6364
2210.02,71.6364
2213.41,71.6364
2216.81,71.6364
2220.2,71.6364
2223.6,65.8182
2226.99,60
2230.39,54.1818
2233.79,54.1818
2237.18,54.1818
2240.58,54.1818
2243.97,54.1818
2247.37,54.1818
2250.76,54.1818
2254.16,83.2727
2257.56,77.4545
2260.95,65.8182
2264.35,65.8182
2267.74,65.8182
2271.14,71.6364
2274.53,94.9091
2277.93,106.545
2281.32,77.4545
2284.72,77.4545
2288.12,77.4545
2291.51,65.8182
2294.91,60
2298.3,54.1818
2301.7,48.3636
2305.09,42.5455
2308.49,36.7273
2311.88,36.7273
2315.28,48.3636
2318.68,54.1818
2322.07,19.2727
2325.47,13.4545
