,GP550R
RamanShit,Intensity
249.029,378.4
253.883,650.4
258.738,650.4
263.592,199.2
268.447,164
273.301,250.4
278.155,352.8
283.01,407.2
287.864,442.4
292.718,516
297.573,573.6
302.427,612
307.282,634.4
312.136,647.2
316.99,656.8
321.845,672.8
326.699,656.8
331.553,656.8
336.408,653.6
341.262,653.6
346.117,650.4
350.971,644
355.825,628
360.68,615.2
365.534,596
370.388,557.6
375.243,538.4
380.097,528.8
384.951,525.6
389.806,525.6
394.66,528.8
399.515,535.2
404.369,541.6
409.223,554.4
414.078,564
418.932,570.4
423.786,573.6
428.641,573.6
433.495,570.4
438.35,567.2
443.204,551.2
448.058,519.2
452.913,484
457.767,436
462.621,410.4
467.476,407.2
472.33,388
477.184,372
482.039,368.8
486.893,317.6
491.748,208.8
496.602,100
501.456,20
506.311,-8.8
511.165,-21.6
516.019,-12
520.874,-12
525.728,-5.6
530.583,4
535.437,7.2
540.291,7.2
545.146,7.2
550,10.4
554.854,10.4
559.709,10.4
564.563,10.4
569.417,10.4
574.272,10.4
579.126,10.4
583.981,10.4
588.835,10.4
593.689,16.8
598.544,7.2
603.398,7.2
608.252,7.2
613.107,7.2
617.961,7.2
622.816,7.2
627.67,7.2
632.524,10.4
637.379,10.4
642.233,13.6
647.087,13.6
651.942,16.8
656.796,16.8
661.65,16.8
666.505,16.8
671.359,16.8
676.214,13.6
681.068,13.6
685.922,16.8
690.777,16.8
695.631,13.6
700.485,13.6
705.34,13.6
710.194,10.4
715.049,10.4
719.903,10.4
724.757,10.4
729.612,10.4
734.466,16.8
739.32,20
744.175,26.4
749.029,36
753.883,58.4
758.738,109.6
763.592,234.4
768.447,423.2
773.301,532
778.155,592.8
783.01,535.2
787.864,532
792.718,500
797.573,445.6
802.427,397.6
807.282,356
812.136,314.4
816.99,292
821.845,272.8
826.699,212
831.553,141.6
836.408,77.6
841.262,32.8
846.117,23.2
850.971,16.8
855.825,20
860.68,23.2
865.534,26.4
870.388,26.4
875.243,29.6
880.097,39.2
884.951,52
889.806,61.6
894.66,80.8
899.515,103.2
904.369,116
909.223,128.8
914.078,141.6
918.932,164
923.786,183.2
928.641,186.4
933.495,189.6
938.35,192.8
943.204,192.8
948.058,192.8
952.913,183.2
957.767,154.4
962.621,116
967.476,93.6
972.33,74.4
977.184,36
982.039,16.8
986.893,13.6
991.748,10.4
996.602,7.2
1001.46,13.6
1006.31,16.8
1011.17,16.8
1016.02,20
1020.87,20
1025.73,32.8
1030.58,55.2
1035.44,87.2
1040.29,106.4
1045.15,122.4
1050,144.8
1054.85,148
1059.71,160.8
1064.56,167.2
1069.42,186.4
1074.27,183.2
1079.13,167.2
1083.98,154.4
1088.83,122.4
1093.69,80.8
1098.54,55.2
1103.4,48.8
1108.25,48.8
1113.11,52
1117.96,55.2
1122.82,68
1127.67,87.2
1132.52,103.2
1137.38,106.4
1142.23,109.6
1147.09,112.8
1151.94,109.6
1156.8,109.6
1161.65,109.6
1166.5,109.6
1171.36,109.6
1176.21,109.6
1181.07,109.6
1185.92,109.6
1190.78,106.4
1195.63,103.2
1200.49,103.2
1205.34,93.6
1210.19,80.8
1215.05,68
1219.9,61.6
1224.76,52
1229.61,39.2
1234.47,29.6
1239.32,26.4
1244.17,23.2
1249.03,16.8
1253.88,13.6
1258.74,10.4
1263.59,10.4
1268.45,10.4
1273.3,13.6
1278.16,13.6
1283.01,23.2
1287.86,36
1292.72,39.2
1297.57,45.6
1302.43,55.2
1307.28,61.6
1312.14,61.6
1316.99,61.6
1321.84,61.6
1326.7,58.4
1331.55,58.4
1336.41,58.4
1341.26,55.2
1346.12,55.2
1350.97,61.6
1355.83,55.2
1360.68,48.8
1365.53,39.2
1370.39,32.8
1375.24,32.8
1380.1,29.6
1384.95,26.4
1389.81,23.2
1394.66,23.2
1399.51,23.2
1404.37,20
1409.22,20
1414.08,20
1418.93,20
1423.79,20
1428.64,23.2
1433.5,23.2
1438.35,29.6
1443.2,39.2
1448.06,42.4
1452.91,48.8
1457.77,42.4
1462.62,42.4
1467.48,42.4
1472.33,39.2
1477.18,29.6
1482.04,23.2
1486.89,20
1491.75,16.8
1496.6,16.8
1501.46,16.8
1506.31,16.8
1511.17,16.8
1516.02,13.6
1520.87,13.6
1525.73,13.6
1530.58,13.6
1535.44,13.6
1540.29,13.6
1545.15,13.6
1550,20
1554.85,23.2
1559.71,26.4
1564.56,26.4
1569.42,26.4
1574.27,32.8
1579.13,36
1583.98,42.4
1588.83,55.2
1593.69,71.2
1598.54,96.8
1603.4,122.4
1608.25,135.2
1613.11,144.8
1617.96,144.8
1622.82,148
1627.67,148
1632.52,148
1637.38,144.8
1642.23,141.6
1647.09,135.2
1651.94,125.6
1656.8,106.4
1661.65,90.4
1666.5,77.6
1671.36,64.8
1676.21,55.2
1681.07,42.4
1685.92,36
1690.78,32.8
1695.63,29.6
1700.49,26.4
1705.34,20
1710.19,20
1715.05,20
1719.9,16.8
1724.76,16.8
1729.61,16.8
1734.47,16.8
1739.32,16.8
1744.17,16.8
1749.03,16.8
1753.88,16.8
1758.74,16.8
1763.59,13.6
1768.45,16.8
1773.3,16.8
1778.16,16.8
1783.01,16.8
1787.86,16.8
1792.72,13.6
1797.57,13.6
1802.43,13.6
1807.28,13.6
1812.14,13.6
1816.99,13.6
1821.84,13.6
1826.7,16.8
1831.55,16.8
1836.41,16.8
1841.26,16.8
1846.12,16.8
1850.97,16.8
1855.83,20
1860.68,20
1865.53,20
1870.39,20
1875.24,20
1880.1,20
1884.95,20
1889.81,16.8
1894.66,16.8
1899.51,16.8
1904.37,16.8
1909.22,20
1914.08,20
1918.93,20
1923.79,20
1928.64,20
1933.5,58.4
1938.35,36
1943.2,20
1948.06,20
1952.91,20
1957.77,20
1962.62,20
1967.48,32.8
1972.33,20
1977.18,20
1982.04,20
1986.89,20
1991.75,16.8
1996.6,13.6
2001.46,13.6
2006.31,13.6
2011.17,13.6
2016.02,16.8
2020.87,16.8
2025.73,16.8
2030.58,36
2035.44,23.2
2040.29,23.2
2045.15,23.2
2050,23.2
2054.85,20
2059.71,20
2064.56,20
2069.42,20
2074.27,20
2079.13,20
2083.98,16.8
2088.83,16.8
2093.69,16.8
2098.54,16.8
2103.4,16.8
2108.25,20
2113.11,20
2117.96,23.2
2122.82,23.2
2127.67,23.2
2132.52,26.4
2137.38,26.4
2142.23,26.4
2147.09,26.4
2151.94,26.4
2156.8,26.4
2161.65,26.4
2166.5,26.4
2171.36,26.4
2176.21,26.4
2181.07,26.4
2185.92,26.4
2190.78,26.4
2195.63,26.4
2200.49,26.4
2205.34,29.6
2210.19,29.6
2215.05,32.8
2219.9,32.8
2224.76,32.8
2229.61,32.8
2234.47,39.2
2239.32,45.6
2244.17,26.4
2249.03,26.4
2253.88,26.4
2258.74,23.2
2263.59,23.2
2268.45,23.2
2273.3,23.2
2278.16,23.2
2283.01,23.2
2287.86,20
2292.72,20
2297.57,20
2302.43,20
2307.28,20
2312.14,20
2316.99,20
2321.84,20
2326.7,0
2331.55,0
2336.41,0
2341.26,0
2346.12,0
