,GP550R
RamanShit,Intensity
264.758,1363.64
267.823,3537.55
270.887,7292.49
273.952,12628.5
277.016,21126.5
280.081,21917
283.145,15790.5
286.21,13814.2
289.274,10454.5
292.339,7687.75
295.403,5316.21
298.468,3932.81
301.532,3142.29
304.597,3932.81
307.661,4328.06
310.726,5316.21
313.79,7885.38
316.855,8280.63
319.919,5711.46
322.984,4723.32
326.048,2747.04
329.113,1363.64
332.177,770.751
335.242,770.751
338.306,770.751
341.371,968.379
344.435,1758.89
347.5,3537.55
350.565,5909.09
353.629,9664.03
356.694,10059.3
359.758,6699.6
362.823,6106.72
365.887,5316.21
368.952,4920.95
372.016,5711.46
375.081,6699.6
378.145,7885.38
381.21,9664.03
384.274,7490.12
387.339,5909.09
390.403,3339.92
393.468,1956.52
396.532,1363.64
399.597,968.379
402.661,573.123
405.726,573.123
408.79,375.494
411.855,375.494
414.919,177.866
417.984,177.866
421.048,177.866
424.113,177.866
427.177,177.866
430.242,177.866
433.306,177.866
436.371,177.866
439.435,177.866
442.5,177.866
445.565,177.866
448.629,177.866
451.694,177.866
454.758,375.494
457.823,770.751
460.887,1758.89
463.952,2351.78
467.016,2549.41
470.081,2944.66
473.145,3339.92
476.21,3932.81
479.274,6501.98
482.339,12430.8
485.403,16383.4
488.468,24090.9
491.532,16383.4
494.597,15395.3
497.661,11047.4
500.726,6304.35
503.79,3932.81
506.855,2549.41
509.919,1758.89
512.984,1561.26
516.048,1166.01
519.113,968.379
522.177,770.751
525.242,770.751
528.306,770.751
531.371,770.751
534.435,770.751
537.5,573.123
540.565,573.123
543.629,573.123
546.694,573.123
549.758,573.123
552.823,573.123
555.887,573.123
558.952,573.123
562.016,770.751
565.081,770.751
568.145,770.751
571.21,770.751
574.274,770.751
577.339,770.751
580.403,770.751
583.468,770.751
586.532,770.751
589.597,968.379
592.661,968.379
595.726,968.379
598.79,1166.01
601.855,1166.01
604.919,1166.01
607.984,1166.01
611.048,1166.01
614.113,1166.01
617.177,1166.01
620.242,968.379
623.306,968.379
626.371,968.379
629.435,968.379
632.5,968.379
635.565,968.379
638.629,968.379
641.694,770.751
644.758,770.751
647.823,770.751
650.887,770.751
653.952,573.123
657.016,573.123
660.081,573.123
663.145,573.123
666.21,573.123
669.274,573.123
672.339,573.123
675.403,573.123
678.468,573.123
681.532,573.123
684.597,375.494
687.661,375.494
690.726,177.866
693.79,177.866
696.855,177.866
699.919,177.866
702.984,177.866
706.048,177.866
709.113,177.866
712.177,177.866
715.242,177.866
718.306,177.866
721.371,177.866
724.435,177.866
727.5,177.866
730.565,177.866
733.629,177.866
736.694,177.866
739.758,177.866
742.823,177.866
745.887,177.866
748.952,177.866
752.016,177.866
755.081,177.866
758.145,177.866
761.21,375.494
764.274,375.494
767.339,770.751
770.403,1166.01
773.468,1166.01
776.532,1166.01
779.597,1363.64
782.661,1363.64
785.726,1561.26
788.79,2351.78
791.855,1956.52
794.919,1363.64
797.984,968.379
801.048,573.123
804.113,375.494
807.177,375.494
810.242,375.494
813.306,375.494
816.371,375.494
819.435,375.494
822.5,375.494
825.565,573.123
828.629,573.123
831.694,573.123
834.758,573.123
837.823,573.123
840.887,573.123
843.952,770.751
847.016,770.751
850.081,770.751
853.145,770.751
856.21,770.751
859.274,770.751
862.339,770.751
865.403,770.751
868.468,770.751
871.532,770.751
874.597,968.379
877.661,968.379
880.726,770.751
883.79,770.751
886.855,770.751
889.919,770.751
892.984,770.751
896.048,968.379
899.113,968.379
902.177,968.379
905.242,968.379
908.306,968.379
911.371,770.751
914.435,770.751
917.5,770.751
920.565,770.751
923.629,770.751
926.694,770.751
929.758,770.751
932.823,573.123
935.887,573.123
938.952,573.123
942.016,573.123
945.081,573.123
948.145,375.494
951.21,375.494
954.274,375.494
957.339,375.494
960.403,375.494
963.468,375.494
966.532,375.494
969.597,177.866
972.661,177.866
975.726,177.866
978.79,177.866
981.855,177.866
984.919,177.866
987.984,177.866
991.048,177.866
994.113,177.866
997.177,177.866
1000.24,177.866
1003.31,177.866
1006.37,177.866
1009.44,177.866
1012.5,177.866
1015.56,177.866
1018.63,177.866
1021.69,177.866
1024.76,177.866
1027.82,177.866
1030.89,177.866
1033.95,177.866
1037.02,375.494
1040.08,375.494
1043.15,573.123
1046.21,770.751
1049.27,968.379
1052.34,1363.64
1055.4,1561.26
1058.47,1561.26
1061.53,1561.26
1064.6,1363.64
1067.66,968.379
1070.73,573.123
1073.79,375.494
1076.85,375.494
1079.92,177.866
1082.98,177.866
1086.05,177.866
1089.11,177.866
1092.18,177.866
1095.24,375.494
1098.31,375.494
1101.37,573.123
1104.44,573.123
1107.5,573.123
1110.56,770.751
1113.63,968.379
1116.69,1166.01
1119.76,1363.64
1122.82,2154.15
1125.89,3339.92
1128.95,4130.43
1132.02,4723.32
1135.08,4130.43
1138.15,3932.81
1141.21,3537.55
1144.27,2944.66
1147.34,2549.41
1150.4,2549.41
1153.47,2549.41
1156.53,2549.41
1159.6,2549.41
1162.66,2549.41
1165.73,2549.41
1168.79,2549.41
1171.85,2549.41
1174.92,2154.15
1177.98,1956.52
1181.05,1561.26
1184.11,1166.01
1187.18,968.379
1190.24,968.379
1193.31,770.751
1196.37,573.123
1199.44,573.123
1202.5,573.123
1205.56,573.123
1208.63,573.123
1211.69,770.751
1214.76,968.379
1217.82,1166.01
1220.89,1166.01
1223.95,1166.01
1227.02,1166.01
1230.08,1166.01
1233.15,968.379
1236.21,968.379
1239.27,770.751
1242.34,573.123
1245.4,573.123
1248.47,573.123
1251.53,375.494
1254.6,375.494
1257.66,375.494
1260.73,177.866
1263.79,177.866
1266.85,177.866
1269.92,375.494
1272.98,375.494
1276.05,573.123
1279.11,573.123
1282.18,573.123
1285.24,770.751
1288.31,573.123
1291.37,573.123
1294.44,573.123
1297.5,177.866
1300.56,177.866
1303.63,177.866
1306.69,177.866
1309.76,177.866
1312.82,177.866
1315.89,177.866
1318.95,177.866
1322.02,177.866
1325.08,375.494
1328.15,573.123
1331.21,770.751
1334.27,968.379
1337.34,1166.01
1340.4,1363.64
1343.47,1363.64
1346.53,1561.26
1349.6,1561.26
1352.66,1363.64
1355.73,1363.64
1358.79,1166.01
1361.85,968.379
1364.92,770.751
1367.98,770.751
1371.05,573.123
1374.11,573.123
1377.18,375.494
1380.24,375.494
1383.31,375.494
1386.37,375.494
1389.44,375.494
1392.5,375.494
1395.56,375.494
1398.63,573.123
1401.69,573.123
1404.76,573.123
1407.82,770.751
1410.89,770.751
1413.95,770.751
1417.02,770.751
1420.08,573.123
1423.15,573.123
1426.21,573.123
1429.27,375.494
1432.34,375.494
1435.4,375.494
1438.47,375.494
1441.53,375.494
1444.6,375.494
1447.66,375.494
1450.73,375.494
1453.79,375.494
1456.85,375.494
1459.92,375.494
1462.98,375.494
1466.05,375.494
1469.11,375.494
1472.18,573.123
1475.24,573.123
1478.31,573.123
1481.37,573.123
1484.44,573.123
1487.5,573.123
1490.56,573.123
1493.63,573.123
1496.69,573.123
1499.76,573.123
1502.82,573.123
1505.89,573.123
1508.95,573.123
1512.02,573.123
1515.08,573.123
1518.15,573.123
1521.21,573.123
1524.27,375.494
1527.34,375.494
1530.4,375.494
1533.47,375.494
1536.53,375.494
1539.6,375.494
1542.66,375.494
1545.73,375.494
1548.79,375.494
1551.85,375.494
1554.92,573.123
1557.98,573.123
1561.05,573.123
1564.11,573.123
1567.18,573.123
1570.24,770.751
1573.31,770.751
1576.37,770.751
1579.44,573.123
1582.5,573.123
1585.56,573.123
1588.63,573.123
1591.69,573.123
1594.76,573.123
1597.82,573.123
1600.89,573.123
1603.95,573.123
1607.02,770.751
1610.08,770.751
1613.15,573.123
1616.21,573.123
1619.27,573.123
1622.34,375.494
1625.4,375.494
1628.47,177.866
1631.53,177.866
1634.6,177.866
1637.66,177.866
1640.73,177.866
1643.79,177.866
1646.85,177.866
1649.92,177.866
1652.98,375.494
1656.05,375.494
1659.11,177.866
1662.18,177.866
1665.24,177.866
1668.31,177.866
1671.37,177.866
1674.44,177.866
1677.5,177.866
1680.56,177.866
1683.63,177.866
1686.69,375.494
1689.76,375.494
1692.82,375.494
1695.89,375.494
1698.95,375.494
1702.02,375.494
1705.08,375.494
1708.15,375.494
1711.21,375.494
1714.27,375.494
1717.34,375.494
1720.4,375.494
1723.47,375.494
1726.53,375.494
1729.6,573.123
1732.66,573.123
1735.73,573.123
1738.79,573.123
1741.85,573.123
1744.92,573.123
1747.98,573.123
1751.05,573.123
1754.11,573.123
1757.18,573.123
1760.24,573.123
1763.31,573.123
1766.37,573.123
1769.44,573.123
1772.5,573.123
1775.56,770.751
1778.63,770.751
1781.69,770.751
1784.76,770.751
1787.82,573.123
1790.89,573.123
1793.95,573.123
1797.02,573.123
1800.08,573.123
1803.15,573.123
1806.21,573.123
1809.27,573.123
1812.34,573.123
1815.4,573.123
1818.47,573.123
1821.53,573.123
1824.6,573.123
1827.66,573.123
1830.73,375.494
1833.79,375.494
1836.85,375.494
1839.92,375.494
1842.98,375.494
1846.05,375.494
1849.11,375.494
1852.18,375.494
1855.24,177.866
1858.31,177.866
1861.37,177.866
1864.44,177.866
1867.5,375.494
1870.56,375.494
1873.63,375.494
1876.69,177.866
1879.76,177.866
1882.82,177.866
1885.89,177.866
1888.95,177.866
1892.02,177.866
1895.08,177.866
1898.15,177.866
1901.21,177.866
1904.27,177.866
1907.34,177.866
1910.4,177.866
1913.47,177.866
1916.53,177.866
1919.6,177.866
1922.66,177.866
1925.73,177.866
1928.79,375.494
1931.85,375.494
1934.92,375.494
1937.98,375.494
1941.05,177.866
1944.11,177.866
1947.18,177.866
1950.24,177.866
1953.31,375.494
1956.37,375.494
1959.44,375.494
1962.5,375.494
1965.56,375.494
1968.63,375.494
1971.69,375.494
1974.76,375.494
1977.82,375.494
1980.89,375.494
1983.95,375.494
1987.02,375.494
1990.08,375.494
1993.15,375.494
1996.21,573.123
1999.27,573.123
2002.34,573.123
2005.4,375.494
2008.47,375.494
2011.53,375.494
2014.6,375.494
2017.66,375.494
2020.73,375.494
2023.79,375.494
2026.85,375.494
2029.92,375.494
2032.98,375.494
2036.05,573.123
2039.11,573.123
2042.18,573.123
2045.24,573.123
2048.31,573.123
2051.37,573.123
2054.44,573.123
2057.5,573.123
2060.56,573.123
2063.63,573.123
2066.69,375.494
2069.76,375.494
2072.82,375.494
2075.89,375.494
2078.95,573.123
2082.02,573.123
2085.08,573.123
2088.15,573.123
2091.21,573.123
2094.27,375.494
2097.34,375.494
2100.4,375.494
2103.47,375.494
2106.53,375.494
2109.6,375.494
2112.66,375.494
2115.73,375.494
2118.79,375.494
2121.85,375.494
2124.92,375.494
2127.98,375.494
2131.05,375.494
2134.11,375.494
2137.18,375.494
2140.24,375.494
2143.31,375.494
2146.37,375.494
2149.44,375.494
2152.5,375.494
2155.56,375.494
2158.63,177.866
2161.69,177.866
2164.76,177.866
2167.82,177.866
2170.89,177.866
2173.95,375.494
2177.02,375.494
2180.08,375.494
2183.15,375.494
2186.21,375.494
2189.27,375.494
2192.34,177.866
2195.4,177.866
2198.47,177.866
2201.53,177.866
2204.6,375.494
2207.66,375.494
2210.73,375.494
2213.79,375.494
2216.85,375.494
2219.92,375.494
2222.98,375.494
2226.05,375.494
2229.11,375.494
2232.18,375.494
2235.24,375.494
2238.31,375.494
2241.37,375.494
2244.44,375.494
2247.5,375.494
2250.56,375.494
2253.63,375.494
2256.69,375.494
2259.76,375.494
2262.82,375.494
2265.89,375.494
2268.95,375.494
2272.02,375.494
2275.08,375.494
2278.15,375.494
2281.21,375.494
2284.27,375.494
2287.34,375.494
2290.4,375.494
