,GP550R
RamanShit,Intensity
249.598,17272.7
252.653,25177.9
255.707,25177.9
258.762,5098.81
261.817,5889.33
264.871,7786.56
267.926,1778.66
270.981,0
274.035,0
277.09,0
280.145,197.628
283.199,355.731
286.254,355.731
289.309,355.731
292.363,197.628
295.418,197.628
298.473,39.5257
301.527,39.5257
304.582,39.5257
307.637,355.731
310.691,671.937
313.746,671.937
316.801,671.937
319.855,671.937
322.91,671.937
325.965,830.04
329.019,988.142
332.074,1146.25
335.129,1620.55
338.183,1936.76
341.238,2094.86
344.293,2569.17
347.347,3201.58
350.402,4150.2
353.457,4782.61
356.511,4782.61
359.566,4782.61
362.621,4624.51
365.675,4308.3
368.73,3675.89
371.785,3201.58
374.839,2885.38
377.894,2885.38
380.949,2727.27
384.003,2569.17
387.058,2094.86
390.113,1462.45
393.167,830.04
396.222,513.834
399.277,355.731
402.331,355.731
405.386,355.731
408.441,355.731
411.495,513.834
414.55,671.937
417.605,671.937
420.659,830.04
423.714,1146.25
426.768,1936.76
429.823,2411.07
432.878,2727.27
435.932,3043.48
438.987,2252.96
442.042,1778.66
445.096,1462.45
448.151,1146.25
451.206,1304.35
454.26,1462.45
457.315,1778.66
460.37,2885.38
463.424,3833.99
466.479,4466.4
469.534,3833.99
472.588,3675.89
475.643,3043.48
478.698,2252.96
481.752,1462.45
484.807,830.04
487.862,513.834
490.916,355.731
493.971,197.628
497.026,197.628
500.08,197.628
503.135,355.731
506.19,513.834
509.244,671.937
512.299,830.04
515.354,830.04
518.408,830.04
521.463,830.04
524.518,830.04
527.572,830.04
530.627,671.937
533.682,671.937
536.736,513.834
539.791,355.731
542.846,197.628
545.9,197.628
548.955,197.628
552.01,197.628
555.064,197.628
558.119,197.628
561.174,197.628
564.228,197.628
567.283,197.628
570.338,197.628
573.392,197.628
576.447,39.5257
579.502,39.5257
582.556,39.5257
585.611,197.628
588.666,355.731
591.72,513.834
594.775,513.834
597.83,513.834
600.884,671.937
603.939,671.937
606.994,671.937
610.048,830.04
613.103,830.04
616.158,830.04
619.212,988.142
622.267,988.142
625.322,830.04
628.376,830.04
631.431,830.04
634.486,830.04
637.54,830.04
640.595,671.937
643.65,671.937
646.704,355.731
649.759,355.731
652.814,197.628
655.868,39.5257
658.923,39.5257
661.977,39.5257
665.032,197.628
668.087,197.628
671.141,197.628
674.196,355.731
677.251,671.937
680.305,830.04
683.36,1304.35
686.415,1936.76
689.469,3201.58
692.524,5098.81
695.579,8260.87
698.633,13794.5
701.688,17430.8
704.743,21383.4
707.797,25652.2
710.852,16007.9
713.907,11422.9
716.961,6521.74
720.016,3992.09
723.071,2569.17
726.125,1620.55
729.18,1304.35
732.235,988.142
735.289,830.04
738.344,671.937
741.399,513.834
744.453,513.834
747.508,513.834
750.563,513.834
753.617,355.731
756.672,355.731
759.727,355.731
762.781,197.628
765.836,197.628
768.891,197.628
771.945,39.5257
775,39.5257
778.055,39.5257
781.109,39.5257
784.164,39.5257
787.219,39.5257
790.273,39.5257
793.328,39.5257
796.383,197.628
799.437,355.731
802.492,830.04
805.547,1936.76
808.601,2885.38
811.656,5889.33
814.711,6363.64
817.765,3043.48
820.82,2252.96
823.875,1304.35
826.929,988.142
829.984,988.142
833.039,1146.25
836.093,1146.25
839.148,1146.25
842.203,988.142
845.257,830.04
848.312,355.731
851.367,197.628
854.421,197.628
857.476,39.5257
860.531,39.5257
863.585,39.5257
866.64,39.5257
869.695,39.5257
872.749,197.628
875.804,39.5257
878.859,39.5257
881.913,39.5257
884.968,39.5257
888.023,39.5257
891.077,39.5257
894.132,39.5257
897.186,39.5257
900.241,39.5257
903.296,39.5257
906.35,197.628
909.405,355.731
912.46,513.834
915.514,830.04
918.569,830.04
921.624,830.04
924.678,830.04
927.733,671.937
930.788,513.834
933.842,197.628
936.897,197.628
939.952,197.628
943.006,197.628
946.061,355.731
949.116,671.937
952.17,1146.25
955.225,1462.45
958.28,1936.76
961.334,1462.45
964.389,1304.35
967.444,830.04
970.498,513.834
973.553,197.628
976.608,197.628
979.662,197.628
982.717,197.628
985.772,197.628
988.826,197.628
991.881,39.5257
994.936,39.5257
997.99,39.5257
1001.05,39.5257
1004.1,39.5257
1007.15,39.5257
1010.21,197.628
1013.26,197.628
1016.32,197.628
1019.37,197.628
1022.43,197.628
1025.48,197.628
1028.54,355.731
1031.59,355.731
1034.65,513.834
1037.7,671.937
1040.76,988.142
1043.81,1620.55
1046.86,1936.76
1049.92,2727.27
1052.97,2252.96
1056.03,2411.07
1059.08,2569.17
1062.14,2885.38
1065.19,3043.48
1068.25,3992.09
1071.3,3043.48
1074.36,2885.38
1077.41,2252.96
1080.47,1304.35
1083.52,830.04
1086.58,513.834
1089.63,355.731
1092.68,355.731
1095.74,197.628
1098.79,197.628
1101.85,197.628
1104.9,197.628
1107.96,197.628
1111.01,197.628
1114.07,197.628
1117.12,197.628
1120.18,197.628
1123.23,197.628
1126.29,197.628
1129.34,197.628
1132.4,197.628
1135.45,197.628
1138.5,197.628
1141.56,197.628
1144.61,197.628
1147.67,197.628
1150.72,197.628
1153.78,39.5257
1156.83,39.5257
1159.89,39.5257
1162.94,39.5257
1166,39.5257
1169.05,39.5257
1172.11,39.5257
1175.16,39.5257
1178.22,39.5257
1181.27,39.5257
1184.32,197.628
1187.38,197.628
1190.43,197.628
1193.49,39.5257
1196.54,39.5257
1199.6,39.5257
1202.65,39.5257
1205.71,39.5257
1208.76,39.5257
1211.82,39.5257
1214.87,39.5257
1217.93,39.5257
1220.98,39.5257
1224.04,39.5257
1227.09,39.5257
1230.14,39.5257
1233.2,39.5257
1236.25,197.628
1239.31,39.5257
1242.36,39.5257
1245.42,39.5257
1248.47,39.5257
1251.53,39.5257
1254.58,39.5257
1257.64,39.5257
1260.69,39.5257
1263.75,39.5257
1266.8,39.5257
1269.86,39.5257
1272.91,39.5257
1275.96,39.5257
1279.02,39.5257
1282.07,39.5257
1285.13,39.5257
1288.18,39.5257
1291.24,39.5257
1294.29,197.628
1297.35,197.628
1300.4,197.628
1303.46,197.628
1306.51,197.628
1309.57,197.628
1312.62,197.628
1315.68,197.628
1318.73,197.628
1321.78,197.628
1324.84,197.628
1327.89,197.628
1330.95,197.628
1334,197.628
1337.06,197.628
1340.11,197.628
1343.17,197.628
1346.22,197.628
1349.28,355.731
1352.33,355.731
1355.39,197.628
1358.44,197.628
1361.5,197.628
1364.55,197.628
1367.6,197.628
1370.66,197.628
1373.71,197.628
1376.77,197.628
1379.82,197.628
1382.88,197.628
1385.93,197.628
1388.99,197.628
1392.04,197.628
1395.1,197.628
1398.15,197.628
1401.21,197.628
1404.26,197.628
1407.32,197.628
1410.37,197.628
1413.42,197.628
1416.48,197.628
1419.53,197.628
1422.59,197.628
1425.64,197.628
1428.7,197.628
1431.75,197.628
1434.81,197.628
1437.86,197.628
1440.92,197.628
1443.97,197.628
1447.03,197.628
1450.08,197.628
1453.14,197.628
1456.19,197.628
1459.24,197.628
1462.3,197.628
1465.35,197.628
1468.41,197.628
1471.46,197.628
1474.52,197.628
1477.57,197.628
1480.63,197.628
1483.68,197.628
1486.74,39.5257
1489.79,39.5257
1492.85,39.5257
1495.9,39.5257
1498.95,39.5257
1502.01,197.628
1505.06,197.628
1508.12,197.628
1511.17,197.628
1514.23,197.628
1517.28,197.628
1520.34,355.731
1523.39,355.731
1526.45,355.731
1529.5,355.731
1532.56,355.731
1535.61,355.731
1538.67,355.731
1541.72,355.731
1544.77,355.731
1547.83,355.731
1550.88,355.731
1553.94,355.731
1556.99,197.628
1560.05,197.628
1563.1,197.628
1566.16,197.628
1569.21,197.628
1572.27,197.628
1575.32,197.628
1578.38,39.5257
1581.43,39.5257
1584.49,39.5257
1587.54,39.5257
1590.59,197.628
1593.65,197.628
1596.7,197.628
1599.76,197.628
1602.81,197.628
1605.87,355.731
1608.92,355.731
1611.98,355.731
1615.03,355.731
1618.09,355.731
1621.14,355.731
1624.2,355.731
1627.25,355.731
1630.31,355.731
1633.36,355.731
1636.41,355.731
1639.47,355.731
1642.52,197.628
1645.58,197.628
1648.63,197.628
1651.69,197.628
1654.74,197.628
1657.8,197.628
1660.85,197.628
1663.91,197.628
1666.96,197.628
1670.02,197.628
1673.07,197.628
1676.13,197.628
1679.18,197.628
1682.23,197.628
1685.29,197.628
1688.34,197.628
1691.4,197.628
1694.45,197.628
1697.51,197.628
1700.56,197.628
1703.62,197.628
1706.67,197.628
1709.73,197.628
1712.78,197.628
1715.84,197.628
1718.89,197.628
1721.95,197.628
1725,197.628
1728.05,197.628
1731.11,197.628
1734.16,197.628
1737.22,197.628
1740.27,39.5257
1743.33,39.5257
1746.38,39.5257
1749.44,39.5257
1752.49,39.5257
1755.55,39.5257
1758.6,39.5257
1761.66,39.5257
1764.71,39.5257
1767.77,39.5257
1770.82,197.628
1773.87,197.628
1776.93,197.628
1779.98,197.628
1783.04,197.628
1786.09,197.628
1789.15,197.628
1792.2,197.628
1795.26,39.5257
1798.31,39.5257
1801.37,39.5257
1804.42,39.5257
1807.48,197.628
1810.53,197.628
1813.59,197.628
1816.64,197.628
1819.69,197.628
1822.75,197.628
1825.8,197.628
1828.86,197.628
1831.91,39.5257
1834.97,39.5257
1838.02,39.5257
1841.08,39.5257
1844.13,39.5257
1847.19,39.5257
1850.24,39.5257
1853.3,39.5257
1856.35,39.5257
1859.41,39.5257
1862.46,39.5257
1865.51,197.628
1868.57,197.628
1871.62,197.628
1874.68,197.628
1877.73,197.628
1880.79,197.628
1883.84,197.628
1886.9,197.628
1889.95,197.628
1893.01,197.628
1896.06,197.628
1899.12,197.628
1902.17,197.628
1905.23,39.5257
1908.28,39.5257
1911.33,39.5257
1914.39,39.5257
1917.44,39.5257
1920.5,39.5257
1923.55,39.5257
1926.61,39.5257
1929.66,39.5257
1932.72,39.5257
1935.77,39.5257
1938.83,39.5257
1941.88,39.5257
1944.94,39.5257
1947.99,39.5257
1951.05,39.5257
1954.1,39.5257
1957.15,39.5257
1960.21,197.628
1963.26,197.628
1966.32,197.628
1969.37,39.5257
1972.43,39.5257
1975.48,39.5257
1978.54,39.5257
1981.59,39.5257
1984.65,39.5257
1987.7,197.628
1990.76,197.628
1993.81,197.628
1996.86,197.628
1999.92,39.5257
2002.97,39.5257
2006.03,39.5257
2009.08,39.5257
2012.14,39.5257
2015.19,39.5257
2018.25,197.628
2021.3,197.628
2024.36,197.628
2027.41,197.628
2030.47,39.5257
2033.52,39.5257
2036.58,39.5257
2039.63,39.5257
2042.68,39.5257
2045.74,39.5257
2048.79,39.5257
2051.85,197.628
2054.9,197.628
2057.96,197.628
2061.01,197.628
2064.07,197.628
2067.12,197.628
2070.18,39.5257
2073.23,39.5257
2076.29,39.5257
2079.34,39.5257
2082.4,39.5257
2085.45,39.5257
2088.5,197.628
2091.56,197.628
2094.61,197.628
2097.67,197.628
2100.72,197.628
2103.78,197.628
2106.83,197.628
2109.89,197.628
2112.94,197.628
2116,355.731
2119.05,355.731
2122.11,355.731
2125.16,355.731
2128.22,355.731
2131.27,355.731
2134.32,355.731
2137.38,355.731
2140.43,355.731
2143.49,513.834
2146.54,513.834
2149.6,513.834
2152.65,513.834
2155.71,513.834
2158.76,513.834
2161.82,513.834
2164.87,513.834
2167.93,513.834
2170.98,513.834
2174.04,671.937
2177.09,671.937
2180.14,671.937
2183.2,671.937
2186.25,671.937
2189.31,671.937
2192.36,671.937
2195.42,671.937
2198.47,671.937
2201.53,671.937
2204.58,671.937
2207.64,671.937
2210.69,513.834
2213.75,513.834
2216.8,513.834
2219.86,355.731
2222.91,197.628
2225.96,197.628
2229.02,39.5257
2232.07,39.5257
2235.13,39.5257
2238.18,39.5257
2241.24,39.5257
2244.29,39.5257
2247.35,197.628
2250.4,197.628
2253.46,197.628
2256.51,355.731
2259.57,355.731
2262.62,355.731
2265.68,355.731
2268.73,355.731
2271.78,355.731
2274.84,355.731
2277.89,355.731
2280.95,355.731
2284,355.731
2287.06,355.731
2290.11,0
2293.17,0
2296.22,0
