,GP550R
RamanShit,Intensity
258.696,610.236
261.755,610.236
264.815,334.646
267.874,334.646
270.934,59.0551
273.994,59.0551
277.053,59.0551
280.113,59.0551
283.172,59.0551
286.232,59.0551
289.291,59.0551
292.351,59.0551
295.411,59.0551
298.47,59.0551
301.53,59.0551
304.589,59.0551
307.649,59.0551
310.709,59.0551
313.768,59.0551
316.828,59.0551
319.887,59.0551
322.947,59.0551
326.006,59.0551
329.066,59.0551
332.126,334.646
335.185,334.646
338.245,334.646
341.304,610.236
344.364,885.827
347.424,1437.01
350.483,1437.01
353.543,1437.01
356.602,1161.42
359.662,610.236
362.721,334.646
365.781,334.646
368.841,59.0551
371.9,59.0551
374.96,59.0551
378.019,334.646
381.079,334.646
384.138,610.236
387.198,885.827
390.258,1161.42
393.317,1437.01
396.377,1437.01
399.436,1161.42
402.496,885.827
405.556,610.236
408.615,334.646
411.675,59.0551
414.734,59.0551
417.794,59.0551
420.853,59.0551
423.913,334.646
426.973,334.646
430.032,334.646
433.092,610.236
436.151,885.827
439.211,1437.01
442.271,2263.78
445.33,3641.73
448.39,5846.46
451.449,9980.31
454.509,19074.8
457.568,27893.7
460.628,53248
463.688,45531.5
466.747,30098.4
469.807,23208.7
472.866,12736.2
475.926,7775.59
478.986,5295.28
482.045,3917.32
485.105,2814.96
488.164,2263.78
491.224,1712.6
494.283,1437.01
497.343,1161.42
500.403,885.827
503.462,610.236
506.522,610.236
509.581,610.236
512.641,610.236
515.7,334.646
518.76,334.646
521.82,334.646
524.879,334.646
527.939,334.646
530.998,334.646
534.058,334.646
537.118,334.646
540.177,334.646
543.237,334.646
546.296,334.646
549.356,59.0551
552.415,59.0551
555.475,59.0551
558.535,59.0551
561.594,59.0551
564.654,59.0551
567.713,59.0551
570.773,59.0551
573.833,59.0551
576.892,59.0551
579.952,59.0551
583.011,334.646
586.071,334.646
589.13,334.646
592.19,334.646
595.25,334.646
598.309,334.646
601.369,334.646
604.428,59.0551
607.488,59.0551
610.548,59.0551
613.607,59.0551
616.667,59.0551
619.726,59.0551
622.786,334.646
625.845,334.646
628.905,334.646
631.965,334.646
635.024,334.646
638.084,334.646
641.143,334.646
644.203,334.646
647.262,334.646
650.322,334.646
653.382,334.646
656.441,59.0551
659.501,59.0551
662.56,59.0551
665.62,59.0551
668.68,59.0551
671.739,334.646
674.799,334.646
677.858,334.646
680.918,334.646
683.977,334.646
687.037,334.646
690.097,610.236
693.156,610.236
696.216,885.827
699.275,610.236
702.335,610.236
705.395,334.646
708.454,334.646
711.514,334.646
714.573,334.646
717.633,334.646
720.692,334.646
723.752,334.646
726.812,334.646
729.871,334.646
732.931,59.0551
735.99,59.0551
739.05,59.0551
742.11,59.0551
745.169,59.0551
748.229,59.0551
751.288,59.0551
754.348,59.0551
757.407,59.0551
760.467,59.0551
763.527,59.0551
766.586,334.646
769.646,334.646
772.705,334.646
775.765,334.646
778.824,334.646
781.884,334.646
784.944,334.646
788.003,610.236
791.063,610.236
794.122,885.827
797.182,885.827
800.242,885.827
803.301,885.827
806.361,1161.42
809.42,885.827
812.48,885.827
815.539,610.236
818.599,334.646
821.659,334.646
824.718,334.646
827.778,334.646
830.837,334.646
833.897,334.646
836.957,334.646
840.016,334.646
843.076,334.646
846.135,334.646
849.195,334.646
852.254,334.646
855.314,334.646
858.374,334.646
861.433,334.646
864.493,334.646
867.552,334.646
870.612,334.646
873.671,334.646
876.731,334.646
879.791,334.646
882.85,334.646
885.91,334.646
888.969,334.646
892.029,334.646
895.089,334.646
898.148,334.646
901.208,334.646
904.267,334.646
907.327,334.646
910.386,334.646
913.446,334.646
916.506,334.646
919.565,334.646
922.625,334.646
925.684,334.646
928.744,334.646
931.804,334.646
934.863,334.646
937.923,334.646
940.982,334.646
944.042,334.646
947.101,334.646
950.161,334.646
953.221,334.646
956.28,334.646
959.34,334.646
962.399,334.646
965.459,59.0551
968.519,59.0551
971.578,59.0551
974.638,59.0551
977.697,59.0551
980.757,59.0551
983.816,59.0551
986.876,59.0551
989.936,59.0551
992.995,59.0551
996.055,59.0551
999.114,59.0551
1002.17,59.0551
1005.23,59.0551
1008.29,59.0551
1011.35,59.0551
1014.41,59.0551
1017.47,59.0551
1020.53,59.0551
1023.59,59.0551
1026.65,59.0551
1029.71,59.0551
1032.77,59.0551
1035.83,59.0551
1038.89,334.646
1041.95,334.646
1045.01,334.646
1048.07,334.646
1051.13,334.646
1054.19,334.646
1057.25,334.646
1060.31,334.646
1063.37,334.646
1066.43,610.236
1069.48,610.236
1072.54,610.236
1075.6,610.236
1078.66,610.236
1081.72,610.236
1084.78,610.236
1087.84,334.646
1090.9,334.646
1093.96,334.646
1097.02,334.646
1100.08,334.646
1103.14,334.646
1106.2,334.646
1109.26,334.646
1112.32,334.646
1115.38,334.646
1118.44,59.0551
1121.5,59.0551
1124.56,59.0551
1127.62,334.646
1130.68,334.646
1133.74,334.646
1136.8,334.646
1139.86,334.646
1142.91,334.646
1145.97,334.646
1149.03,334.646
1152.09,610.236
1155.15,885.827
1158.21,1161.42
1161.27,1161.42
1164.33,1161.42
1167.39,885.827
1170.45,610.236
1173.51,610.236
1176.57,334.646
1179.63,334.646
1182.69,334.646
1185.75,334.646
1188.81,334.646
1191.87,334.646
1194.93,334.646
1197.99,334.646
1201.05,334.646
1204.11,334.646
1207.17,334.646
1210.23,334.646
1213.29,334.646
1216.34,334.646
1219.4,334.646
1222.46,334.646
1225.52,334.646
1228.58,334.646
1231.64,334.646
1234.7,334.646
1237.76,334.646
1240.82,334.646
1243.88,334.646
1246.94,334.646
1250,334.646
1253.06,334.646
1256.12,334.646
1259.18,334.646
1262.24,334.646
1265.3,334.646
1268.36,334.646
1271.42,334.646
1274.48,334.646
1277.54,334.646
1280.6,334.646
1283.66,334.646
1286.71,334.646
1289.77,334.646
1292.83,334.646
1295.89,334.646
1298.95,59.0551
1302.01,59.0551
1305.07,59.0551
1308.13,59.0551
1311.19,59.0551
1314.25,59.0551
1317.31,59.0551
1320.37,59.0551
1323.43,59.0551
1326.49,59.0551
1329.55,334.646
1332.61,334.646
1335.67,334.646
1338.73,334.646
1341.79,334.646
1344.85,334.646
1347.91,334.646
1350.97,334.646
1354.03,334.646
1357.09,334.646
1360.14,334.646
1363.2,334.646
1366.26,334.646
1369.32,334.646
1372.38,334.646
1375.44,334.646
1378.5,59.0551
1381.56,59.0551
1384.62,59.0551
1387.68,59.0551
1390.74,59.0551
1393.8,59.0551
1396.86,59.0551
1399.92,59.0551
1402.98,334.646
1406.04,334.646
1409.1,334.646
1412.16,334.646
1415.22,334.646
1418.28,334.646
1421.34,334.646
1424.4,334.646
1427.46,334.646
1430.52,334.646
1433.57,334.646
1436.63,334.646
1439.69,334.646
1442.75,334.646
1445.81,334.646
1448.87,334.646
1451.93,334.646
1454.99,334.646
1458.05,59.0551
1461.11,59.0551
1464.17,59.0551
1467.23,59.0551
1470.29,59.0551
1473.35,59.0551
1476.41,59.0551
1479.47,59.0551
1482.53,59.0551
1485.59,59.0551
1488.65,334.646
1491.71,59.0551
1494.77,59.0551
1497.83,59.0551
1500.89,59.0551
1503.95,59.0551
1507,59.0551
1510.06,59.0551
1513.12,334.646
1516.18,334.646
1519.24,59.0551
1522.3,59.0551
1525.36,59.0551
1528.42,59.0551
1531.48,59.0551
1534.54,59.0551
1537.6,59.0551
1540.66,334.646
1543.72,334.646
1546.78,334.646
1549.84,334.646
1552.9,334.646
1555.96,334.646
1559.02,334.646
1562.08,334.646
1565.14,334.646
1568.2,334.646
1571.26,334.646
1574.32,334.646
1577.38,334.646
1580.43,334.646
1583.49,334.646
1586.55,334.646
1589.61,334.646
1592.67,334.646
1595.73,334.646
1598.79,334.646
1601.85,334.646
1604.91,334.646
1607.97,334.646
1611.03,334.646
1614.09,334.646
1617.15,334.646
1620.21,334.646
1623.27,334.646
1626.33,334.646
1629.39,334.646
1632.45,334.646
1635.51,334.646
1638.57,334.646
1641.63,334.646
1644.69,334.646
1647.75,334.646
1650.81,334.646
1653.86,334.646
1656.92,334.646
1659.98,334.646
1663.04,334.646
1666.1,334.646
1669.16,334.646
1672.22,59.0551
1675.28,59.0551
1678.34,59.0551
1681.4,59.0551
1684.46,59.0551
1687.52,59.0551
1690.58,59.0551
1693.64,59.0551
1696.7,59.0551
1699.76,59.0551
1702.82,59.0551
1705.88,59.0551
1708.94,59.0551
1712,59.0551
1715.06,59.0551
1718.12,59.0551
1721.18,59.0551
1724.24,59.0551
1727.29,59.0551
1730.35,59.0551
1733.41,59.0551
1736.47,334.646
1739.53,334.646
1742.59,334.646
1745.65,334.646
1748.71,334.646
1751.77,334.646
1754.83,334.646
1757.89,334.646
1760.95,334.646
1764.01,334.646
1767.07,334.646
1770.13,334.646
1773.19,334.646
1776.25,334.646
1779.31,334.646
1782.37,334.646
1785.43,334.646
1788.49,334.646
1791.55,334.646
1794.61,334.646
1797.67,334.646
1800.72,334.646
1803.78,334.646
1806.84,334.646
1809.9,334.646
1812.96,334.646
1816.02,334.646
1819.08,334.646
1822.14,334.646
1825.2,334.646
1828.26,334.646
1831.32,334.646
1834.38,334.646
1837.44,334.646
1840.5,334.646
1843.56,334.646
1846.62,334.646
1849.68,334.646
1852.74,59.0551
1855.8,59.0551
1858.86,59.0551
1861.92,59.0551
1864.98,59.0551
1868.04,334.646
1871.1,334.646
1874.15,334.646
1877.21,334.646
1880.27,334.646
1883.33,334.646
1886.39,59.0551
1889.45,59.0551
1892.51,59.0551
1895.57,59.0551
1898.63,59.0551
1901.69,334.646
1904.75,334.646
1907.81,59.0551
1910.87,59.0551
1913.93,59.0551
1916.99,59.0551
1920.05,59.0551
1923.11,59.0551
1926.17,59.0551
1929.23,59.0551
1932.29,59.0551
1935.35,59.0551
1938.41,59.0551
1941.47,59.0551
1944.52,59.0551
1947.58,59.0551
1950.64,59.0551
1953.7,59.0551
1956.76,59.0551
1959.82,59.0551
1962.88,59.0551
1965.94,59.0551
1969,59.0551
1972.06,59.0551
1975.12,59.0551
1978.18,59.0551
1981.24,59.0551
1984.3,59.0551
1987.36,334.646
1990.42,334.646
1993.48,334.646
1996.54,334.646
1999.6,334.646
2002.66,334.646
2005.72,334.646
2008.78,334.646
2011.84,334.646
2014.9,334.646
2017.95,334.646
2021.01,334.646
2024.07,334.646
2027.13,334.646
2030.19,334.646
2033.25,334.646
2036.31,334.646
2039.37,334.646
2042.43,334.646
2045.49,334.646
2048.55,334.646
2051.61,334.646
2054.67,334.646
2057.73,334.646
2060.79,59.0551
2063.85,59.0551
2066.91,59.0551
2069.97,59.0551
2073.03,59.0551
2076.09,59.0551
2079.15,59.0551
2082.21,59.0551
2085.27,59.0551
2088.33,334.646
2091.38,334.646
2094.44,334.646
2097.5,334.646
2100.56,334.646
2103.62,334.646
2106.68,334.646
2109.74,334.646
2112.8,334.646
2115.86,334.646
2118.92,334.646
2121.98,334.646
2125.04,334.646
2128.1,334.646
2131.16,334.646
2134.22,334.646
2137.28,334.646
2140.34,334.646
2143.4,334.646
2146.46,334.646
2149.52,334.646
2152.58,334.646
2155.64,334.646
2158.7,334.646
2161.76,334.646
2164.81,334.646
2167.87,334.646
2170.93,334.646
2173.99,334.646
2177.05,334.646
2180.11,334.646
2183.17,334.646
2186.23,334.646
2189.29,334.646
2192.35,334.646
2195.41,59.0551
2198.47,59.0551
2201.53,59.0551
2204.59,59.0551
2207.65,59.0551
2210.71,334.646
2213.77,334.646
2216.83,334.646
2219.89,334.646
2222.95,334.646
2226.01,334.646
2229.07,334.646
2232.13,334.646
2235.19,334.646
2238.24,59.0551
2241.3,59.0551
2244.36,59.0551
2247.42,59.0551
2250.48,59.0551
2253.54,59.0551
2256.6,334.646
2259.66,59.0551
2262.72,59.0551
2265.78,59.0551
2268.84,59.0551
2271.9,59.0551
2274.96,59.0551
2278.02,59.0551
2281.08,59.0551
2284.14,334.646
2287.2,334.646
2290.26,334.646
2293.32,334.646
