,GP550R
RamanShit,Intensity
259,238.39
261,281.734
263,238.39
265,238.39
267,195.046
269,151.703
271,151.703
273,151.703
275,151.703
277,151.703
279,151.703
281,195.046
283,195.046
285,195.046
287,195.046
289,195.046
291,195.046
293,195.046
295,195.046
297,195.046
299,195.046
301,195.046
303,195.046
305,195.046
307,195.046
309,195.046
311,195.046
313,195.046
315,195.046
317,195.046
319,195.046
321,195.046
323,195.046
325,195.046
327,195.046
329,195.046
331,195.046
333,195.046
335,195.046
337,195.046
339,238.39
341,238.39
343,325.077
345,368.421
347,455.108
349,541.796
351,541.796
353,628.483
355,541.796
357,455.108
359,411.765
361,281.734
363,195.046
365,195.046
367,195.046
369,195.046
371,195.046
373,195.046
375,195.046
377,195.046
379,238.39
381,238.39
383,281.734
385,368.421
387,455.108
389,541.796
391,541.796
393,541.796
395,541.796
397,498.452
399,455.108
401,411.765
403,238.39
405,195.046
407,195.046
409,195.046
411,195.046
413,195.046
415,195.046
417,195.046
419,195.046
421,195.046
423,195.046
425,195.046
427,195.046
429,195.046
431,238.39
433,238.39
435,281.734
437,368.421
439,455.108
441,498.452
443,715.17
445,1018.58
447,1278.64
449,1885.45
451,2925.7
453,3575.85
455,4529.41
457,7520.12
459,9557.28
461,9600.62
463,11637.8
465,9513.93
467,9427.24
469,7996.9
471,5092.88
473,3099.07
475,2145.51
477,1538.7
479,1235.29
481,1061.92
483,975.232
485,801.858
487,715.17
489,585.139
491,541.796
493,455.108
495,411.765
497,411.765
499,368.421
501,325.077
503,281.734
505,238.39
507,238.39
509,238.39
511,238.39
513,238.39
515,238.39
517,238.39
519,238.39
521,238.39
523,238.39
525,238.39
527,195.046
529,195.046
531,195.046
533,195.046
535,195.046
537,195.046
539,195.046
541,195.046
543,195.046
545,195.046
547,195.046
549,195.046
551,195.046
553,195.046
555,195.046
557,195.046
559,195.046
561,195.046
563,195.046
565,195.046
567,195.046
569,195.046
571,195.046
573,195.046
575,195.046
577,195.046
579,195.046
581,195.046
583,195.046
585,195.046
587,195.046
589,195.046
591,195.046
593,195.046
595,195.046
597,195.046
599,195.046
601,195.046
603,195.046
605,195.046
607,195.046
609,195.046
611,195.046
613,195.046
615,195.046
617,195.046
619,195.046
621,195.046
623,195.046
625,195.046
627,195.046
629,195.046
631,195.046
633,195.046
635,195.046
637,195.046
639,195.046
641,195.046
643,195.046
645,195.046
647,195.046
649,195.046
651,195.046
653,195.046
655,195.046
657,195.046
659,195.046
661,195.046
663,195.046
665,195.046
667,195.046
669,195.046
671,195.046
673,195.046
675,195.046
677,238.39
679,238.39
681,238.39
683,238.39
685,238.39
687,238.39
689,325.077
691,325.077
693,368.421
695,368.421
697,368.421
699,325.077
701,195.046
703,238.39
705,238.39
707,238.39
709,238.39
711,238.39
713,238.39
715,238.39
717,238.39
719,238.39
721,238.39
723,238.39
725,238.39
727,238.39
729,238.39
731,238.39
733,238.39
735,238.39
737,238.39
739,238.39
741,238.39
743,238.39
745,238.39
747,238.39
749,151.703
751,238.39
753,238.39
755,238.39
757,238.39
759,195.046
761,195.046
763,195.046
765,195.046
767,195.046
769,195.046
771,195.046
773,195.046
775,195.046
777,195.046
779,238.39
781,238.39
783,238.39
785,238.39
787,238.39
789,238.39
791,281.734
793,325.077
795,325.077
797,325.077
799,368.421
801,238.39
803,368.421
805,368.421
807,368.421
809,325.077
811,281.734
813,238.39
815,238.39
817,238.39
819,238.39
821,238.39
823,195.046
825,195.046
827,195.046
829,195.046
831,195.046
833,195.046
835,195.046
837,238.39
839,238.39
841,238.39
843,238.39
845,238.39
847,238.39
849,238.39
851,238.39
853,195.046
855,195.046
857,195.046
859,195.046
861,195.046
863,195.046
865,195.046
867,195.046
869,195.046
871,195.046
873,195.046
875,195.046
877,195.046
879,195.046
881,195.046
883,195.046
885,195.046
887,195.046
889,195.046
891,195.046
893,195.046
895,195.046
897,195.046
899,195.046
901,195.046
903,195.046
905,238.39
907,238.39
909,238.39
911,238.39
913,238.39
915,238.39
917,238.39
919,238.39
921,238.39
923,238.39
925,238.39
927,238.39
929,195.046
931,195.046
933,195.046
935,195.046
937,195.046
939,195.046
941,195.046
943,195.046
945,195.046
947,195.046
949,195.046
951,195.046
953,238.39
955,238.39
957,238.39
959,238.39
961,238.39
963,195.046
965,195.046
967,195.046
969,195.046
971,195.046
973,195.046
975,195.046
977,195.046
979,195.046
981,195.046
983,195.046
985,195.046
987,195.046
989,195.046
991,195.046
993,195.046
995,195.046
997,195.046
999,195.046
1001,281.734
1003,195.046
1005,195.046
1007,195.046
1009,195.046
1011,195.046
1013,195.046
1015,195.046
1017,195.046
1019,195.046
1021,195.046
1023,195.046
1025,195.046
1027,195.046
1029,195.046
1031,195.046
1033,195.046
1035,195.046
1037,195.046
1039,195.046
1041,195.046
1043,195.046
1045,195.046
1047,195.046
1049,195.046
1051,195.046
1053,195.046
1055,238.39
1057,238.39
1059,238.39
1061,238.39
1063,238.39
1065,238.39
1067,238.39
1069,238.39
1071,238.39
1073,238.39
1075,238.39
1077,238.39
1079,238.39
1081,238.39
1083,238.39
1085,238.39
1087,238.39
1089,238.39
1091,238.39
1093,238.39
1095,238.39
1097,238.39
1099,238.39
1101,195.046
1103,195.046
1105,195.046
1107,195.046
1109,195.046
1111,195.046
1113,195.046
1115,195.046
1117,195.046
1119,195.046
1121,195.046
1123,195.046
1125,195.046
1127,195.046
1129,195.046
1131,195.046
1133,195.046
1135,238.39
1137,238.39
1139,238.39
1141,238.39
1143,238.39
1145,238.39
1147,238.39
1149,281.734
1151,325.077
1153,368.421
1155,411.765
1157,498.452
1159,498.452
1161,498.452
1163,498.452
1165,455.108
1167,411.765
1169,281.734
1171,238.39
1173,238.39
1175,238.39
1177,238.39
1179,238.39
1181,238.39
1183,238.39
1185,238.39
1187,238.39
1189,238.39
1191,238.39
1193,238.39
1195,238.39
1197,238.39
1199,238.39
1201,195.046
1203,195.046
1205,195.046
1207,195.046
1209,195.046
1211,195.046
1213,195.046
1215,195.046
1217,195.046
1219,195.046
1221,195.046
1223,195.046
1225,195.046
1227,238.39
1229,238.39
1231,238.39
1233,238.39
1235,238.39
1237,238.39
1239,238.39
1241,238.39
1243,195.046
1245,195.046
1247,195.046
1249,195.046
1251,195.046
1253,238.39
1255,238.39
1257,238.39
1259,238.39
1261,238.39
1263,238.39
1265,238.39
1267,238.39
1269,238.39
1271,238.39
1273,238.39
1275,238.39
1277,195.046
1279,195.046
1281,195.046
1283,195.046
1285,195.046
1287,195.046
1289,195.046
1291,195.046
1293,195.046
1295,195.046
1297,195.046
1299,195.046
1301,195.046
1303,238.39
1305,238.39
1307,238.39
1309,238.39
1311,238.39
1313,238.39
1315,238.39
1317,238.39
1319,238.39
1321,238.39
1323,238.39
1325,238.39
1327,238.39
1329,238.39
1331,238.39
1333,238.39
1335,238.39
1337,238.39
1339,238.39
1341,238.39
1343,238.39
1345,238.39
1347,238.39
1349,238.39
1351,151.703
1353,238.39
1355,238.39
1357,238.39
1359,195.046
1361,195.046
1363,195.046
1365,195.046
1367,195.046
1369,195.046
1371,195.046
1373,195.046
1375,195.046
1377,195.046
1379,195.046
1381,195.046
1383,195.046
1385,195.046
1387,195.046
1389,195.046
1391,195.046
1393,195.046
1395,195.046
