,GP550R
RamanShit,Intensity
258.696,98.0392
261.755,98.0392
264.815,98.0392
267.874,98.0392
270.934,98.0392
273.994,294.118
277.053,686.275
280.113,1666.67
283.172,2450.98
286.232,3235.29
289.291,2843.14
292.351,2450.98
295.411,2058.82
298.47,1274.51
301.53,686.275
304.589,294.118
307.649,98.0392
310.709,98.0392
313.768,98.0392
316.828,98.0392
319.887,98.0392
322.947,98.0392
326.006,98.0392
329.066,98.0392
332.126,98.0392
335.185,98.0392
338.245,98.0392
341.304,98.0392
344.364,98.0392
347.424,98.0392
350.483,294.118
353.543,294.118
356.602,294.118
359.662,294.118
362.721,294.118
365.781,294.118
368.841,294.118
371.9,294.118
374.96,294.118
378.019,294.118
381.079,490.196
384.138,686.275
387.198,882.353
390.258,1274.51
393.317,1666.67
396.377,2450.98
399.436,3431.37
402.496,4803.92
405.556,5784.31
408.615,6764.71
411.675,7549.02
414.734,8529.41
417.794,9509.8
420.853,10686.3
423.913,12058.8
426.973,13627.5
430.032,15196.1
433.092,16568.6
436.151,17156.9
439.211,17352.9
442.271,17156.9
445.33,16960.8
448.39,16176.5
451.449,14803.9
454.509,12843.1
457.568,10686.3
460.628,8333.33
463.688,6176.47
466.747,4607.84
469.807,3431.37
472.866,2450.98
475.926,1666.67
478.986,1078.43
482.045,686.275
485.105,490.196
488.164,294.118
491.224,98.0392
494.283,98.0392
497.343,98.0392
500.403,98.0392
503.462,98.0392
506.522,98.0392
509.581,98.0392
512.641,98.0392
515.7,98.0392
518.76,98.0392
521.82,98.0392
524.879,98.0392
527.939,98.0392
530.998,98.0392
534.058,98.0392
537.118,98.0392
540.177,98.0392
543.237,294.118
546.296,490.196
549.356,686.275
552.415,1078.43
555.475,1470.59
558.535,2254.9
561.594,3039.22
564.654,4019.61
567.713,5196.08
570.773,6372.55
573.833,7941.18
576.892,9509.8
579.952,11470.6
583.011,14019.6
586.071,16960.8
589.13,19705.9
592.19,22843.1
595.25,26372.5
598.309,29902
601.369,33235.3
604.428,35784.3
607.488,38333.3
610.548,38529.4
613.607,36372.5
616.667,35000
619.726,31862.7
622.786,28137.3
625.845,24215.7
628.905,20294.1
631.965,16960.8
635.024,13823.5
638.084,11274.5
641.143,8725.49
644.203,6764.71
647.262,5196.08
650.322,4019.61
653.382,3235.29
656.441,2450.98
659.501,1862.75
662.56,1470.59
665.62,1078.43
668.68,882.353
671.739,686.275
674.799,294.118
677.858,294.118
680.918,294.118
683.977,98.0392
687.037,98.0392
690.097,98.0392
693.156,98.0392
696.216,98.0392
699.275,98.0392
702.335,98.0392
705.395,98.0392
708.454,98.0392
711.514,98.0392
714.573,98.0392
717.633,98.0392
720.692,98.0392
723.752,98.0392
726.812,98.0392
729.871,98.0392
732.931,98.0392
735.99,98.0392
739.05,98.0392
742.11,98.0392
745.169,98.0392
748.229,98.0392
751.288,98.0392
754.348,98.0392
757.407,98.0392
760.467,98.0392
763.527,98.0392
766.586,98.0392
769.646,98.0392
772.705,98.0392
775.765,98.0392
778.824,98.0392
781.884,294.118
784.944,294.118
788.003,294.118
791.063,294.118
794.122,294.118
797.182,294.118
800.242,294.118
803.301,490.196
806.361,490.196
809.42,490.196
812.48,490.196
815.539,490.196
818.599,490.196
821.659,294.118
824.718,294.118
827.778,294.118
830.837,294.118
833.897,294.118
836.957,294.118
840.016,294.118
843.076,294.118
846.135,98.0392
849.195,98.0392
852.254,98.0392
855.314,98.0392
858.374,98.0392
861.433,98.0392
864.493,98.0392
867.552,98.0392
870.612,98.0392
873.671,98.0392
876.731,98.0392
879.791,98.0392
882.85,98.0392
885.91,98.0392
888.969,98.0392
892.029,98.0392
895.089,98.0392
898.148,98.0392
901.208,98.0392
904.267,98.0392
907.327,98.0392
910.386,98.0392
913.446,98.0392
916.506,98.0392
919.565,98.0392
922.625,98.0392
925.684,98.0392
928.744,98.0392
931.804,98.0392
934.863,98.0392
937.923,98.0392
940.982,98.0392
944.042,98.0392
947.101,98.0392
950.161,98.0392
953.221,98.0392
956.28,98.0392
959.34,98.0392
962.399,98.0392
965.459,98.0392
968.519,98.0392
971.578,98.0392
974.638,98.0392
977.697,98.0392
980.757,98.0392
983.816,98.0392
986.876,98.0392
989.936,98.0392
992.995,98.0392
996.055,98.0392
999.114,98.0392
1002.17,98.0392
1005.23,98.0392
1008.29,98.0392
1011.35,98.0392
1014.41,98.0392
1017.47,98.0392
1020.53,98.0392
1023.59,98.0392
1026.65,98.0392
1029.71,98.0392
1032.77,98.0392
1035.83,98.0392
1038.89,98.0392
1041.95,98.0392
1045.01,98.0392
1048.07,98.0392
1051.13,98.0392
1054.19,98.0392
1057.25,98.0392
1060.31,98.0392
1063.37,98.0392
1066.43,98.0392
1069.48,98.0392
1072.54,98.0392
1075.6,98.0392
1078.66,98.0392
1081.72,98.0392
1084.78,98.0392
1087.84,98.0392
1090.9,98.0392
1093.96,98.0392
1097.02,98.0392
1100.08,98.0392
1103.14,98.0392
1106.2,98.0392
1109.26,98.0392
1112.32,98.0392
1115.38,98.0392
1118.44,98.0392
1121.5,98.0392
1124.56,98.0392
1127.62,98.0392
1130.68,98.0392
1133.74,98.0392
1136.8,98.0392
1139.86,98.0392
1142.91,98.0392
1145.97,98.0392
1149.03,98.0392
1152.09,98.0392
1155.15,98.0392
1158.21,98.0392
1161.27,98.0392
1164.33,98.0392
1167.39,98.0392
1170.45,98.0392
1173.51,98.0392
1176.57,98.0392
1179.63,98.0392
1182.69,98.0392
1185.75,98.0392
1188.81,98.0392
1191.87,98.0392
1194.93,98.0392
1197.99,98.0392
1201.05,98.0392
1204.11,98.0392
1207.17,98.0392
1210.23,98.0392
1213.29,98.0392
1216.34,98.0392
1219.4,98.0392
1222.46,98.0392
1225.52,98.0392
1228.58,98.0392
1231.64,98.0392
1234.7,98.0392
1237.76,98.0392
1240.82,98.0392
1243.88,98.0392
1246.94,98.0392
1250,98.0392
1253.06,98.0392
1256.12,98.0392
1259.18,98.0392
1262.24,98.0392
1265.3,98.0392
1268.36,98.0392
1271.42,98.0392
1274.48,294.118
1277.54,294.118
1280.6,294.118
1283.66,294.118
1286.71,294.118
1289.77,294.118
1292.83,294.118
1295.89,294.118
1298.95,294.118
1302.01,294.118
1305.07,294.118
1308.13,294.118
1311.19,294.118
1314.25,490.196
1317.31,490.196
1320.37,490.196
1323.43,490.196
1326.49,490.196
1329.55,294.118
1332.61,294.118
1335.67,294.118
1338.73,294.118
1341.79,294.118
1344.85,294.118
1347.91,294.118
1350.97,294.118
1354.03,294.118
1357.09,294.118
1360.14,294.118
1363.2,98.0392
1366.26,98.0392
1369.32,98.0392
1372.38,98.0392
1375.44,98.0392
1378.5,98.0392
1381.56,98.0392
1384.62,98.0392
1387.68,98.0392
1390.74,98.0392
1393.8,98.0392
1396.86,98.0392
1399.92,98.0392
1402.98,98.0392
1406.04,98.0392
1409.1,98.0392
1412.16,98.0392
1415.22,98.0392
1418.28,98.0392
1421.34,98.0392
1424.4,98.0392
1427.46,98.0392
1430.52,98.0392
1433.57,98.0392
1436.63,98.0392
1439.69,98.0392
1442.75,98.0392
1445.81,98.0392
1448.87,98.0392
1451.93,98.0392
1454.99,98.0392
1458.05,98.0392
1461.11,98.0392
1464.17,98.0392
1467.23,98.0392
1470.29,98.0392
1473.35,98.0392
1476.41,98.0392
1479.47,98.0392
1482.53,98.0392
1485.59,98.0392
1488.65,98.0392
1491.71,98.0392
1494.77,98.0392
1497.83,98.0392
1500.89,98.0392
1503.95,98.0392
1507,98.0392
1510.06,98.0392
1513.12,98.0392
1516.18,98.0392
1519.24,98.0392
1522.3,98.0392
1525.36,98.0392
1528.42,98.0392
1531.48,98.0392
1534.54,98.0392
1537.6,98.0392
1540.66,98.0392
1543.72,98.0392
1546.78,294.118
1549.84,294.118
1552.9,294.118
1555.96,294.118
1559.02,294.118
1562.08,294.118
1565.14,98.0392
1568.2,98.0392
1571.26,98.0392
1574.32,98.0392
1577.38,294.118
1580.43,294.118
1583.49,294.118
1586.55,294.118
1589.61,294.118
1592.67,294.118
1595.73,294.118
1598.79,294.118
1601.85,294.118
1604.91,294.118
1607.97,294.118
1611.03,294.118
1614.09,294.118
1617.15,294.118
1620.21,294.118
1623.27,294.118
1626.33,294.118
1629.39,294.118
1632.45,294.118
1635.51,294.118
1638.57,98.0392
1641.63,98.0392
1644.69,98.0392
1647.75,98.0392
1650.81,98.0392
1653.86,98.0392
1656.92,98.0392
1659.98,98.0392
1663.04,98.0392
1666.1,98.0392
1669.16,98.0392
1672.22,98.0392
1675.28,98.0392
1678.34,98.0392
1681.4,98.0392
1684.46,98.0392
1687.52,98.0392
1690.58,98.0392
1693.64,98.0392
1696.7,98.0392
1699.76,98.0392
1702.82,98.0392
1705.88,98.0392
1708.94,98.0392
1712,98.0392
1715.06,98.0392
1718.12,98.0392
1721.18,98.0392
1724.24,98.0392
1727.29,98.0392
1730.35,98.0392
1733.41,98.0392
1736.47,98.0392
1739.53,98.0392
1742.59,98.0392
1745.65,98.0392
1748.71,98.0392
1751.77,98.0392
1754.83,98.0392
1757.89,98.0392
1760.95,98.0392
1764.01,98.0392
1767.07,98.0392
1770.13,98.0392
1773.19,98.0392
1776.25,98.0392
1779.31,98.0392
1782.37,98.0392
1785.43,98.0392
1788.49,98.0392
1791.55,98.0392
1794.61,98.0392
1797.67,98.0392
1800.72,98.0392
1803.78,98.0392
1806.84,98.0392
1809.9,98.0392
1812.96,98.0392
1816.02,98.0392
1819.08,98.0392
1822.14,98.0392
1825.2,98.0392
1828.26,98.0392
1831.32,98.0392
1834.38,98.0392
1837.44,98.0392
1840.5,98.0392
1843.56,98.0392
1846.62,98.0392
1849.68,98.0392
1852.74,98.0392
1855.8,98.0392
1858.86,98.0392
1861.92,98.0392
1864.98,98.0392
1868.04,98.0392
1871.1,98.0392
1874.15,98.0392
1877.21,98.0392
1880.27,98.0392
1883.33,98.0392
1886.39,98.0392
1889.45,98.0392
1892.51,98.0392
1895.57,98.0392
1898.63,98.0392
1901.69,98.0392
1904.75,98.0392
1907.81,98.0392
1910.87,98.0392
1913.93,98.0392
1916.99,98.0392
1920.05,98.0392
1923.11,98.0392
1926.17,98.0392
1929.23,98.0392
1932.29,98.0392
1935.35,98.0392
1938.41,98.0392
1941.47,98.0392
1944.52,98.0392
1947.58,98.0392
1950.64,98.0392
1953.7,98.0392
1956.76,98.0392
1959.82,98.0392
1962.88,98.0392
1965.94,98.0392
1969,98.0392
1972.06,98.0392
1975.12,98.0392
1978.18,98.0392
1981.24,98.0392
1984.3,98.0392
1987.36,98.0392
1990.42,98.0392
1993.48,98.0392
1996.54,98.0392
1999.6,98.0392
2002.66,98.0392
2005.72,98.0392
2008.78,98.0392
2011.84,98.0392
2014.9,98.0392
2017.95,98.0392
2021.01,98.0392
2024.07,98.0392
2027.13,98.0392
2030.19,98.0392
2033.25,98.0392
2036.31,98.0392
2039.37,98.0392
2042.43,98.0392
2045.49,98.0392
2048.55,98.0392
2051.61,98.0392
2054.67,98.0392
2057.73,98.0392
2060.79,98.0392
2063.85,98.0392
2066.91,98.0392
2069.97,98.0392
2073.03,98.0392
2076.09,98.0392
2079.15,98.0392
2082.21,98.0392
2085.27,98.0392
2088.33,98.0392
2091.38,98.0392
2094.44,98.0392
2097.5,98.0392
2100.56,98.0392
2103.62,98.0392
2106.68,98.0392
2109.74,98.0392
2112.8,98.0392
2115.86,98.0392
2118.92,98.0392
2121.98,98.0392
2125.04,98.0392
2128.1,98.0392
2131.16,98.0392
2134.22,98.0392
2137.28,98.0392
2140.34,98.0392
2143.4,98.0392
2146.46,98.0392
2149.52,98.0392
2152.58,98.0392
2155.64,98.0392
2158.7,98.0392
2161.76,98.0392
2164.81,98.0392
2167.87,98.0392
2170.93,98.0392
2173.99,98.0392
2177.05,98.0392
2180.11,98.0392
2183.17,98.0392
2186.23,98.0392
2189.29,98.0392
2192.35,98.0392
2195.41,98.0392
2198.47,98.0392
2201.53,98.0392
2204.59,98.0392
2207.65,98.0392
2210.71,98.0392
2213.77,98.0392
2216.83,98.0392
2219.89,98.0392
2222.95,98.0392
2226.01,98.0392
2229.07,98.0392
2232.13,98.0392
2235.19,98.0392
2238.24,98.0392
2241.3,98.0392
2244.36,98.0392
2247.42,98.0392
2250.48,98.0392
2253.54,98.0392
2256.6,98.0392
2259.66,98.0392
2262.72,98.0392
2265.78,98.0392
2268.84,98.0392
2271.9,98.0392
2274.96,98.0392
2278.02,98.0392
2281.08,98.0392
2284.14,98.0392
2287.2,98.0392
2290.26,98.0392
2293.32,98.0392
