,GP550R
RamanShit,Intensity
261.817,117.647
264.871,117.647
267.926,117.647
270.981,117.647
274.035,117.647
277.09,117.647
280.145,117.647
283.199,117.647
286.254,117.647
289.309,117.647
292.363,117.647
295.418,117.647
298.473,117.647
301.527,117.647
304.582,117.647
307.637,117.647
310.691,117.647
313.746,117.647
316.801,117.647
319.855,117.647
322.91,117.647
325.965,117.647
329.019,117.647
332.074,117.647
335.129,117.647
338.183,117.647
341.238,117.647
344.293,117.647
347.347,117.647
350.402,117.647
353.457,117.647
356.511,117.647
359.566,117.647
362.621,117.647
365.675,117.647
368.73,117.647
371.785,117.647
374.839,117.647
377.894,117.647
380.949,117.647
384.003,117.647
387.058,274.51
390.113,431.373
393.167,588.235
396.222,901.961
399.277,1215.69
402.331,1686.27
405.386,2470.59
408.441,3254.9
411.495,4196.08
414.55,5137.25
417.605,6392.16
420.659,7960.78
423.714,9686.27
426.768,11568.6
429.823,13764.7
432.878,16117.6
435.932,18470.6
438.987,20823.5
442.042,22705.9
445.096,24431.4
448.151,24588.2
451.206,23176.5
454.26,22235.3
457.315,19725.5
460.37,16588.2
463.424,12823.5
466.479,9529.41
469.534,7333.33
472.588,5294.12
475.643,3725.49
478.698,2627.45
481.752,1843.14
484.807,1215.69
487.862,901.961
490.916,588.235
493.971,274.51
497.026,117.647
500.08,117.647
503.135,117.647
506.19,117.647
509.244,117.647
512.299,117.647
515.354,117.647
518.408,117.647
521.463,117.647
524.518,117.647
527.572,117.647
530.627,117.647
533.682,117.647
536.736,117.647
539.791,117.647
542.846,274.51
545.9,274.51
548.955,274.51
552.01,588.235
555.064,745.098
558.119,1058.82
561.174,1529.41
564.228,2000
567.283,2627.45
570.338,3411.76
573.392,4352.94
576.447,5450.98
579.502,6549.02
582.556,7960.78
585.611,9843.14
588.666,12039.2
591.72,14235.3
594.775,16745.1
597.83,19568.6
600.884,22549
603.939,25372.5
606.994,26941.2
610.048,28980.4
613.103,29451
616.158,27098
619.212,25843.1
622.267,22705.9
625.322,19411.8
628.376,16117.6
631.431,13137.3
634.486,10470.6
637.54,8274.51
640.595,6549.02
643.65,4823.53
646.704,3411.76
649.759,2627.45
652.814,2000
655.868,1372.55
658.923,1058.82
661.977,745.098
665.032,431.373
668.087,274.51
671.141,274.51
674.196,274.51
677.251,117.647
680.305,117.647
683.36,117.647
686.415,117.647
689.469,117.647
692.524,117.647
695.579,117.647
698.633,117.647
701.688,117.647
704.743,117.647
707.797,117.647
710.852,117.647
713.907,117.647
716.961,117.647
720.016,117.647
723.071,117.647
726.125,117.647
729.18,117.647
732.235,117.647
735.289,117.647
738.344,117.647
741.399,117.647
744.453,117.647
747.508,117.647
750.563,117.647
753.617,117.647
756.672,117.647
759.727,117.647
762.781,117.647
765.836,117.647
768.891,117.647
771.945,117.647
775,117.647
778.055,117.647
781.109,117.647
784.164,117.647
787.219,117.647
790.273,117.647
793.328,117.647
796.383,274.51
799.437,274.51
802.492,274.51
805.547,274.51
808.601,274.51
811.656,274.51
814.711,274.51
817.765,274.51
820.82,274.51
823.875,274.51
826.929,274.51
829.984,274.51
833.039,274.51
836.093,274.51
839.148,274.51
842.203,274.51
845.257,274.51
848.312,117.647
851.367,117.647
854.421,117.647
857.476,117.647
860.531,117.647
863.585,117.647
866.64,117.647
869.695,117.647
872.749,117.647
875.804,117.647
878.859,117.647
881.913,117.647
884.968,117.647
888.023,117.647
891.077,117.647
894.132,117.647
897.186,117.647
900.241,117.647
903.296,117.647
906.35,117.647
909.405,117.647
912.46,117.647
915.514,117.647
918.569,117.647
921.624,117.647
924.678,117.647
927.733,117.647
930.788,117.647
933.842,117.647
936.897,117.647
939.952,117.647
943.006,117.647
946.061,117.647
949.116,117.647
952.17,117.647
955.225,117.647
958.28,117.647
961.334,117.647
964.389,117.647
967.444,117.647
970.498,117.647
973.553,117.647
976.608,117.647
979.662,117.647
982.717,117.647
985.772,117.647
988.826,117.647
991.881,117.647
994.936,117.647
997.99,117.647
1001.05,117.647
1004.1,117.647
1007.15,117.647
1010.21,117.647
1013.26,117.647
1016.32,117.647
1019.37,117.647
1022.43,117.647
1025.48,117.647
1028.54,117.647
1031.59,117.647
1034.65,117.647
1037.7,117.647
1040.76,117.647
1043.81,117.647
1046.86,117.647
1049.92,117.647
1052.97,117.647
1056.03,117.647
1059.08,117.647
1062.14,117.647
1065.19,117.647
1068.25,117.647
1071.3,117.647
1074.36,117.647
1077.41,117.647
1080.47,117.647
1083.52,117.647
1086.58,117.647
1089.63,117.647
1092.68,117.647
1095.74,117.647
1098.79,117.647
1101.85,117.647
1104.9,117.647
1107.96,117.647
1111.01,117.647
1114.07,117.647
1117.12,117.647
1120.18,117.647
1123.23,117.647
1126.29,117.647
1129.34,117.647
1132.4,274.51
1135.45,274.51
1138.5,274.51
1141.56,274.51
1144.61,274.51
1147.67,431.373
1150.72,431.373
1153.78,431.373
1156.83,431.373
1159.89,431.373
1162.94,588.235
1166,588.235
1169.05,588.235
1172.11,745.098
1175.16,588.235
1178.22,588.235
1181.27,431.373
1184.32,274.51
1187.38,274.51
1190.43,274.51
1193.49,274.51
1196.54,117.647
1199.6,117.647
1202.65,117.647
1205.71,117.647
1208.76,274.51
1211.82,274.51
1214.87,274.51
1217.93,274.51
1220.98,274.51
1224.04,431.373
1227.09,274.51
1230.14,274.51
1233.2,274.51
1236.25,274.51
1239.31,274.51
1242.36,274.51
1245.42,274.51
1248.47,117.647
1251.53,117.647
1254.58,117.647
1257.64,117.647
1260.69,117.647
1263.75,117.647
1266.8,117.647
1269.86,274.51
1272.91,274.51
1275.96,274.51
1279.02,274.51
1282.07,274.51
1285.13,274.51
1288.18,274.51
1291.24,274.51
1294.29,274.51
1297.35,117.647
1300.4,117.647
1303.46,117.647
1306.51,117.647
1309.57,117.647
1312.62,117.647
1315.68,117.647
1318.73,117.647
1321.78,117.647
1324.84,117.647
1327.89,274.51
1330.95,274.51
1334,431.373
1337.06,431.373
1340.11,431.373
1343.17,588.235
1346.22,588.235
1349.28,588.235
1352.33,588.235
1355.39,431.373
1358.44,431.373
1361.5,431.373
1364.55,274.51
1367.6,274.51
1370.66,274.51
1373.71,274.51
1376.77,117.647
1379.82,117.647
1382.88,117.647
1385.93,117.647
1388.99,117.647
1392.04,117.647
1395.1,117.647
1398.15,117.647
1401.21,274.51
1404.26,274.51
1407.32,274.51
1410.37,274.51
1413.42,274.51
1416.48,274.51
1419.53,117.647
1422.59,117.647
1425.64,117.647
1428.7,117.647
1431.75,117.647
1434.81,117.647
1437.86,117.647
1440.92,117.647
1443.97,117.647
1447.03,117.647
1450.08,117.647
1453.14,117.647
1456.19,117.647
1459.24,117.647
1462.3,117.647
1465.35,117.647
1468.41,117.647
1471.46,117.647
1474.52,117.647
1477.57,117.647
1480.63,117.647
1483.68,117.647
1486.74,117.647
1489.79,117.647
1492.85,117.647
1495.9,117.647
1498.95,117.647
1502.01,117.647
1505.06,117.647
1508.12,117.647
1511.17,117.647
1514.23,117.647
1517.28,117.647
1520.34,117.647
1523.39,117.647
1526.45,117.647
1529.5,117.647
1532.56,117.647
1535.61,117.647
1538.67,117.647
1541.72,117.647
1544.77,117.647
1547.83,117.647
1550.88,274.51
1553.94,274.51
1556.99,274.51
1560.05,274.51
1563.1,274.51
1566.16,274.51
1569.21,274.51
1572.27,274.51
1575.32,274.51
1578.38,274.51
1581.43,274.51
1584.49,274.51
1587.54,274.51
1590.59,274.51
1593.65,274.51
1596.7,274.51
1599.76,274.51
1602.81,274.51
1605.87,274.51
1608.92,274.51
1611.98,274.51
1615.03,274.51
1618.09,274.51
1621.14,274.51
1624.2,117.647
1627.25,117.647
1630.31,117.647
1633.36,117.647
1636.41,117.647
1639.47,117.647
1642.52,117.647
1645.58,117.647
1648.63,117.647
1651.69,117.647
1654.74,117.647
1657.8,117.647
1660.85,117.647
1663.91,117.647
1666.96,117.647
1670.02,117.647
1673.07,117.647
1676.13,117.647
1679.18,117.647
1682.23,117.647
1685.29,117.647
1688.34,117.647
1691.4,117.647
1694.45,117.647
1697.51,117.647
1700.56,117.647
1703.62,117.647
1706.67,117.647
1709.73,117.647
1712.78,117.647
1715.84,117.647
1718.89,117.647
1721.95,117.647
1725,117.647
1728.05,117.647
1731.11,117.647
1734.16,117.647
1737.22,117.647
1740.27,117.647
1743.33,117.647
1746.38,117.647
1749.44,117.647
1752.49,117.647
1755.55,117.647
1758.6,117.647
1761.66,117.647
1764.71,117.647
1767.77,117.647
1770.82,117.647
1773.87,117.647
1776.93,117.647
1779.98,117.647
1783.04,117.647
1786.09,117.647
1789.15,117.647
1792.2,117.647
1795.26,117.647
1798.31,117.647
1801.37,117.647
1804.42,117.647
1807.48,117.647
1810.53,117.647
1813.59,117.647
1816.64,117.647
1819.69,117.647
1822.75,117.647
1825.8,117.647
1828.86,117.647
1831.91,117.647
1834.97,117.647
1838.02,117.647
1841.08,117.647
1844.13,117.647
1847.19,117.647
1850.24,117.647
1853.3,117.647
1856.35,117.647
1859.41,117.647
1862.46,117.647
1865.51,117.647
1868.57,117.647
1871.62,117.647
1874.68,274.51
1877.73,117.647
1880.79,117.647
1883.84,117.647
1886.9,117.647
1889.95,117.647
1893.01,117.647
1896.06,117.647
1899.12,117.647
1902.17,117.647
1905.23,117.647
1908.28,117.647
1911.33,117.647
1914.39,117.647
1917.44,117.647
1920.5,117.647
1923.55,117.647
1926.61,117.647
1929.66,117.647
1932.72,117.647
1935.77,117.647
1938.83,117.647
1941.88,117.647
1944.94,117.647
1947.99,117.647
1951.05,117.647
1954.1,117.647
1957.15,117.647
1960.21,117.647
1963.26,117.647
1966.32,117.647
1969.37,117.647
1972.43,117.647
1975.48,117.647
1978.54,117.647
1981.59,117.647
1984.65,117.647
1987.7,117.647
1990.76,117.647
1993.81,117.647
1996.86,117.647
1999.92,117.647
2002.97,117.647
2006.03,117.647
2009.08,117.647
2012.14,117.647
2015.19,117.647
2018.25,117.647
2021.3,117.647
2024.36,117.647
2027.41,117.647
2030.47,117.647
2033.52,117.647
2036.58,117.647
2039.63,117.647
2042.68,117.647
2045.74,117.647
2048.79,117.647
2051.85,117.647
2054.9,117.647
2057.96,117.647
2061.01,117.647
2064.07,117.647
2067.12,117.647
2070.18,117.647
2073.23,117.647
2076.29,117.647
2079.34,117.647
2082.4,117.647
2085.45,117.647
2088.5,117.647
2091.56,117.647
2094.61,117.647
2097.67,117.647
2100.72,117.647
2103.78,117.647
2106.83,117.647
2109.89,117.647
2112.94,117.647
2116,117.647
2119.05,117.647
2122.11,117.647
2125.16,117.647
2128.22,117.647
2131.27,117.647
2134.32,117.647
2137.38,117.647
2140.43,117.647
2143.49,117.647
2146.54,117.647
2149.6,117.647
2152.65,117.647
2155.71,117.647
2158.76,117.647
2161.82,117.647
2164.87,117.647
2167.93,117.647
2170.98,117.647
2174.04,117.647
2177.09,117.647
2180.14,117.647
2183.2,117.647
2186.25,117.647
2189.31,117.647
2192.36,117.647
2195.42,117.647
2198.47,117.647
2201.53,117.647
2204.58,117.647
2207.64,117.647
2210.69,117.647
2213.75,117.647
2216.8,117.647
2219.86,117.647
2222.91,117.647
2225.96,274.51
2229.02,117.647
2232.07,117.647
2235.13,117.647
2238.18,117.647
2241.24,117.647
2244.29,117.647
2247.35,117.647
2250.4,117.647
2253.46,117.647
2256.51,117.647
2259.57,117.647
2262.62,117.647
2265.68,117.647
2268.73,117.647
2271.78,117.647
2274.84,117.647
2277.89,117.647
2280.95,117.647
2284,117.647
2287.06,117.647
2290.11,117.647
