,GP550R
RamanShit,Intensity
258.696,86.6142
261.755,86.6142
264.815,86.6142
267.874,86.6142
270.934,165.354
273.994,165.354
277.053,86.6142
280.113,86.6142
283.172,86.6142
286.232,86.6142
289.291,86.6142
292.351,86.6142
295.411,86.6142
298.47,165.354
301.53,165.354
304.589,244.094
307.649,322.835
310.709,480.315
313.768,716.535
316.828,1031.5
319.887,1503.94
322.947,2212.6
326.006,3314.96
329.066,4023.62
332.126,5125.98
335.185,4023.62
338.245,3157.48
341.304,1740.16
344.364,874.016
347.424,559.055
350.483,401.575
353.543,322.835
356.602,244.094
359.662,165.354
362.721,86.6142
365.781,86.6142
368.841,86.6142
371.9,86.6142
374.96,86.6142
378.019,165.354
381.079,244.094
384.138,322.835
387.198,559.055
390.258,952.756
393.317,1425.2
396.377,1661.42
399.436,2527.56
402.496,1503.94
405.556,1188.98
408.615,637.795
411.675,322.835
414.734,244.094
417.794,165.354
420.853,86.6142
423.913,86.6142
426.973,86.6142
430.032,86.6142
433.092,86.6142
436.151,86.6142
439.211,86.6142
442.271,86.6142
445.33,86.6142
448.39,86.6142
451.449,86.6142
454.509,86.6142
457.568,86.6142
460.628,86.6142
463.688,86.6142
466.747,86.6142
469.807,86.6142
472.866,86.6142
475.926,86.6142
478.986,86.6142
482.045,86.6142
485.105,86.6142
488.164,86.6142
491.224,86.6142
494.283,86.6142
497.343,86.6142
500.403,86.6142
503.462,86.6142
506.522,86.6142
509.581,86.6142
512.641,86.6142
515.7,86.6142
518.76,86.6142
521.82,86.6142
524.879,86.6142
527.939,86.6142
530.998,86.6142
534.058,86.6142
537.118,86.6142
540.177,86.6142
543.237,86.6142
546.296,86.6142
549.356,86.6142
552.415,86.6142
555.475,86.6142
558.535,86.6142
561.594,86.6142
564.654,86.6142
567.713,86.6142
570.773,86.6142
573.833,86.6142
576.892,86.6142
579.952,86.6142
583.011,86.6142
586.071,86.6142
589.13,86.6142
592.19,86.6142
595.25,86.6142
598.309,86.6142
601.369,86.6142
604.428,86.6142
607.488,86.6142
610.548,86.6142
613.607,86.6142
616.667,86.6142
619.726,86.6142
622.786,86.6142
625.845,86.6142
628.905,86.6142
631.965,86.6142
635.024,86.6142
638.084,86.6142
641.143,86.6142
644.203,86.6142
647.262,86.6142
650.322,86.6142
653.382,86.6142
656.441,86.6142
659.501,86.6142
662.56,86.6142
665.62,86.6142
668.68,86.6142
671.739,86.6142
674.799,86.6142
677.858,86.6142
680.918,86.6142
683.977,86.6142
687.037,86.6142
690.097,86.6142
693.156,86.6142
696.216,86.6142
699.275,86.6142
702.335,86.6142
705.395,86.6142
708.454,86.6142
711.514,86.6142
714.573,86.6142
717.633,86.6142
720.692,86.6142
723.752,86.6142
726.812,86.6142
729.871,86.6142
732.931,86.6142
735.99,86.6142
739.05,86.6142
742.11,86.6142
745.169,86.6142
748.229,86.6142
751.288,86.6142
754.348,86.6142
757.407,86.6142
760.467,86.6142
763.527,86.6142
766.586,86.6142
769.646,86.6142
772.705,86.6142
775.765,86.6142
778.824,86.6142
781.884,165.354
784.944,244.094
788.003,322.835
791.063,637.795
794.122,716.535
797.182,1267.72
800.242,637.795
803.301,480.315
806.361,244.094
809.42,86.6142
812.48,86.6142
815.539,86.6142
818.599,86.6142
821.659,86.6142
824.718,165.354
827.778,244.094
830.837,480.315
833.897,637.795
836.957,952.756
840.016,637.795
843.076,559.055
846.135,322.835
849.195,165.354
852.254,165.354
855.314,86.6142
858.374,86.6142
861.433,86.6142
864.493,86.6142
867.552,86.6142
870.612,165.354
873.671,244.094
876.731,322.835
879.791,401.575
882.85,637.795
885.91,716.535
888.969,795.276
892.029,874.016
895.089,1110.24
898.148,1976.38
901.208,3551.18
904.267,6385.83
907.327,8118.11
910.386,12606.3
913.446,17173.2
916.506,6700.79
919.565,3866.14
922.625,1740.16
925.684,952.756
928.744,559.055
931.804,480.315
934.863,322.835
937.923,322.835
940.982,244.094
944.042,165.354
947.101,165.354
950.161,86.6142
953.221,86.6142
956.28,86.6142
959.34,86.6142
962.399,86.6142
965.459,86.6142
968.519,86.6142
971.578,86.6142
974.638,86.6142
977.697,86.6142
980.757,86.6142
983.816,86.6142
986.876,86.6142
989.936,86.6142
992.995,86.6142
996.055,86.6142
999.114,86.6142
1002.17,86.6142
1005.23,86.6142
1008.29,86.6142
1011.35,86.6142
1014.41,86.6142
1017.47,86.6142
1020.53,86.6142
1023.59,86.6142
1026.65,86.6142
1029.71,86.6142
1032.77,86.6142
1035.83,86.6142
1038.89,86.6142
1041.95,86.6142
1045.01,86.6142
1048.07,86.6142
1051.13,86.6142
1054.19,86.6142
1057.25,86.6142
1060.31,86.6142
1063.37,86.6142
1066.43,86.6142
1069.48,86.6142
1072.54,86.6142
1075.6,86.6142
1078.66,86.6142
1081.72,86.6142
1084.78,86.6142
1087.84,86.6142
1090.9,86.6142
1093.96,86.6142
1097.02,86.6142
1100.08,86.6142
1103.14,86.6142
1106.2,86.6142
1109.26,86.6142
1112.32,86.6142
1115.38,86.6142
1118.44,86.6142
1121.5,86.6142
1124.56,86.6142
1127.62,86.6142
1130.68,86.6142
1133.74,86.6142
1136.8,86.6142
1139.86,86.6142
1142.91,86.6142
1145.97,86.6142
1149.03,86.6142
1152.09,86.6142
1155.15,86.6142
1158.21,86.6142
1161.27,86.6142
1164.33,86.6142
1167.39,86.6142
1170.45,86.6142
1173.51,86.6142
1176.57,86.6142
1179.63,86.6142
1182.69,86.6142
1185.75,86.6142
1188.81,86.6142
1191.87,86.6142
1194.93,86.6142
1197.99,86.6142
1201.05,86.6142
1204.11,86.6142
1207.17,86.6142
1210.23,86.6142
1213.29,86.6142
1216.34,86.6142
1219.4,86.6142
1222.46,86.6142
1225.52,86.6142
1228.58,86.6142
1231.64,86.6142
1234.7,7.87402
1237.76,7.87402
1240.82,7.87402
1243.88,7.87402
1246.94,7.87402
1250,7.87402
1253.06,7.87402
1256.12,7.87402
1259.18,7.87402
1262.24,7.87402
1265.3,7.87402
1268.36,7.87402
1271.42,7.87402
1274.48,7.87402
1277.54,7.87402
1280.6,7.87402
1283.66,7.87402
1286.71,7.87402
1289.77,7.87402
1292.83,7.87402
1295.89,7.87402
1298.95,7.87402
1302.01,7.87402
1305.07,7.87402
1308.13,7.87402
1311.19,7.87402
1314.25,7.87402
1317.31,7.87402
1320.37,7.87402
1323.43,7.87402
1326.49,7.87402
1329.55,7.87402
1332.61,7.87402
1335.67,7.87402
1338.73,7.87402
1341.79,7.87402
1344.85,7.87402
1347.91,7.87402
1350.97,7.87402
1354.03,7.87402
1357.09,7.87402
1360.14,7.87402
1363.2,7.87402
1366.26,7.87402
1369.32,7.87402
1372.38,7.87402
1375.44,7.87402
1378.5,7.87402
1381.56,7.87402
1384.62,7.87402
1387.68,7.87402
1390.74,7.87402
1393.8,7.87402
1396.86,7.87402
1399.92,7.87402
1402.98,7.87402
1406.04,7.87402
1409.1,7.87402
1412.16,7.87402
1415.22,7.87402
1418.28,7.87402
1421.34,7.87402
1424.4,7.87402
1427.46,7.87402
1430.52,7.87402
1433.57,7.87402
1436.63,7.87402
1439.69,7.87402
1442.75,7.87402
1445.81,7.87402
1448.87,7.87402
1451.93,7.87402
1454.99,7.87402
1458.05,7.87402
1461.11,7.87402
1464.17,7.87402
1467.23,7.87402
1470.29,7.87402
1473.35,7.87402
1476.41,7.87402
1479.47,7.87402
1482.53,7.87402
1485.59,7.87402
1488.65,7.87402
1491.71,7.87402
1494.77,7.87402
1497.83,7.87402
1500.89,7.87402
1503.95,7.87402
1507,7.87402
1510.06,7.87402
1513.12,7.87402
1516.18,7.87402
1519.24,7.87402
1522.3,7.87402
1525.36,7.87402
1528.42,7.87402
1531.48,7.87402
1534.54,7.87402
1537.6,7.87402
1540.66,7.87402
1543.72,7.87402
1546.78,7.87402
1549.84,7.87402
1552.9,7.87402
1555.96,7.87402
1559.02,7.87402
1562.08,7.87402
1565.14,7.87402
1568.2,7.87402
1571.26,7.87402
1574.32,7.87402
1577.38,7.87402
1580.43,7.87402
1583.49,7.87402
1586.55,7.87402
1589.61,7.87402
1592.67,7.87402
1595.73,7.87402
1598.79,7.87402
1601.85,7.87402
1604.91,7.87402
1607.97,7.87402
1611.03,7.87402
1614.09,7.87402
1617.15,7.87402
1620.21,7.87402
1623.27,7.87402
1626.33,7.87402
1629.39,7.87402
1632.45,7.87402
1635.51,7.87402
1638.57,7.87402
1641.63,7.87402
1644.69,7.87402
1647.75,7.87402
1650.81,7.87402
1653.86,7.87402
1656.92,7.87402
1659.98,7.87402
1663.04,7.87402
1666.1,7.87402
1669.16,7.87402
1672.22,7.87402
1675.28,7.87402
1678.34,7.87402
1681.4,7.87402
1684.46,7.87402
1687.52,7.87402
1690.58,7.87402
1693.64,7.87402
1696.7,7.87402
1699.76,7.87402
1702.82,7.87402
1705.88,7.87402
1708.94,7.87402
1712,7.87402
1715.06,7.87402
1718.12,7.87402
1721.18,7.87402
1724.24,7.87402
1727.29,7.87402
1730.35,7.87402
1733.41,7.87402
1736.47,7.87402
1739.53,7.87402
1742.59,7.87402
1745.65,7.87402
1748.71,7.87402
1751.77,7.87402
1754.83,7.87402
1757.89,7.87402
1760.95,7.87402
1764.01,7.87402
1767.07,7.87402
1770.13,7.87402
1773.19,7.87402
1776.25,7.87402
1779.31,7.87402
1782.37,7.87402
1785.43,7.87402
1788.49,7.87402
1791.55,7.87402
1794.61,7.87402
1797.67,7.87402
1800.72,7.87402
1803.78,7.87402
1806.84,7.87402
1809.9,7.87402
1812.96,7.87402
1816.02,7.87402
1819.08,7.87402
1822.14,7.87402
1825.2,7.87402
1828.26,7.87402
1831.32,7.87402
1834.38,7.87402
1837.44,7.87402
1840.5,7.87402
1843.56,7.87402
1846.62,7.87402
1849.68,7.87402
1852.74,7.87402
1855.8,7.87402
1858.86,7.87402
1861.92,7.87402
1864.98,7.87402
1868.04,7.87402
1871.1,7.87402
1874.15,7.87402
1877.21,7.87402
1880.27,7.87402
1883.33,7.87402
1886.39,7.87402
1889.45,7.87402
1892.51,7.87402
1895.57,7.87402
1898.63,7.87402
1901.69,7.87402
1904.75,7.87402
1907.81,7.87402
1910.87,7.87402
1913.93,7.87402
1916.99,7.87402
1920.05,7.87402
1923.11,7.87402
1926.17,7.87402
1929.23,7.87402
1932.29,7.87402
1935.35,7.87402
1938.41,7.87402
1941.47,7.87402
1944.52,7.87402
1947.58,7.87402
1950.64,7.87402
1953.7,7.87402
1956.76,7.87402
1959.82,7.87402
1962.88,7.87402
1965.94,7.87402
1969,7.87402
1972.06,7.87402
1975.12,7.87402
1978.18,7.87402
1981.24,7.87402
1984.3,7.87402
1987.36,7.87402
1990.42,7.87402
1993.48,7.87402
1996.54,7.87402
1999.6,7.87402
2002.66,7.87402
2005.72,7.87402
2008.78,7.87402
2011.84,7.87402
2014.9,7.87402
2017.95,7.87402
2021.01,7.87402
2024.07,7.87402
2027.13,7.87402
2030.19,7.87402
2033.25,7.87402
2036.31,7.87402
2039.37,7.87402
2042.43,7.87402
2045.49,7.87402
2048.55,7.87402
2051.61,7.87402
2054.67,7.87402
2057.73,7.87402
2060.79,7.87402
2063.85,7.87402
2066.91,7.87402
2069.97,7.87402
2073.03,7.87402
2076.09,7.87402
2079.15,7.87402
2082.21,7.87402
2085.27,7.87402
2088.33,7.87402
2091.38,7.87402
2094.44,7.87402
2097.5,7.87402
2100.56,7.87402
2103.62,7.87402
2106.68,7.87402
2109.74,7.87402
2112.8,7.87402
2115.86,7.87402
2118.92,7.87402
2121.98,7.87402
2125.04,7.87402
2128.1,7.87402
2131.16,7.87402
2134.22,7.87402
2137.28,7.87402
2140.34,7.87402
2143.4,7.87402
2146.46,7.87402
2149.52,7.87402
2152.58,7.87402
2155.64,7.87402
2158.7,7.87402
2161.76,7.87402
2164.81,7.87402
2167.87,7.87402
2170.93,7.87402
2173.99,7.87402
2177.05,7.87402
2180.11,7.87402
2183.17,7.87402
2186.23,7.87402
2189.29,7.87402
2192.35,7.87402
2195.41,7.87402
2198.47,7.87402
2201.53,7.87402
2204.59,7.87402
2207.65,7.87402
2210.71,7.87402
2213.77,7.87402
2216.83,7.87402
2219.89,7.87402
2222.95,7.87402
2226.01,7.87402
2229.07,7.87402
2232.13,7.87402
2235.19,7.87402
2238.24,7.87402
2241.3,7.87402
2244.36,7.87402
2247.42,7.87402
2250.48,7.87402
2253.54,7.87402
2256.6,7.87402
2259.66,7.87402
2262.72,7.87402
2265.78,7.87402
2268.84,7.87402
2271.9,7.87402
2274.96,7.87402
2278.02,7.87402
2281.08,7.87402
2284.14,7.87402
2287.2,7.87402
2290.26,7.87402
